p_wave,pr_interval,qt_interval,t_wave,st_interval,qrs,clas
0.07826568306169532,0.11346153039018574,0.38240627622815576,0.22337652462373908,0.0966760151670491,0.08605857799507757,0
0.07251244474222975,0.06762141905200071,0.3862327047931598,0.15414950111496672,0.08082884990819536,0.08429680494693151,0
0.07165152837872235,0.0639024942649303,0.3826709702030167,0.1273838658613943,0.1131951475735278,0.09042402990852885,0
0.07360287200604494,0.14032324785914363,0.385800526756116,0.20051015883928125,0.0864360379732029,0.08784137488244857,0
0.095771868769422,0.041395159072526305,0.4110793408901708,0.13426119744853707,0.13610812165009784,0.08583254003777879,1
0.06278606987533344,0.15784259817002227,0.3650049362298951,0.22971576919124403,0.1585940202491285,0.08670305398643194,1
0.07158477712710382,0.15428024778857863,0.41571459054464016,0.13287648283922437,0.14639780443787132,0.09160210972633298,1
0.08094593399101335,0.07286160518766292,0.41410721529056443,0.1637779833113695,0.13310540238636112,0.08257756912457288,1
0.1147436834701879,0.19230040086230418,0.36279632117517085,0.13462916369844516,0.14284530374179671,0.09738630973512932,1
0.06577648780291878,0.03166939235031821,0.3903857192540058,0.21480874753003354,0.14140582856092643,0.08577364986274158,1
0.06868574828808702,0.05449583768801129,0.4184053635964553,0.11798252312143367,0.15564401935888605,0.08237214273993937,1
0.06838726335708079,0.1312116413108639,0.3842938089861722,0.16570171122794886,0.12820149918218227,0.08961421217306746,1
0.09036172966579128,0.057484046052475396,0.3859261306668207,0.1433999291522735,0.07179389514306518,0.0807363642014252,1
0.10598541749528338,0.07844072266113361,0.402724113772989,0.2074835922750194,0.15577562285650137,0.09777076322380028,1
0.07987236630264115,0.10091593140471826,0.37817539618470014,0.24913753294729005,0.1252568456097508,0.08835366865476703,1
0.07645673479940963,0.01424815444127914,0.39623816821315416,0.21544881814944525,0.07405542603525218,0.09002656075903887,1
0.06133923180837733,0.1918680428028905,0.3619736723631642,0.124257928928823,0.1383297069809746,0.08819979664559906,1
0.07778327221009566,0.12984680860901202,0.3608384493364491,0.23513590296381306,0.1481611701140027,0.08447785209299849,1
0.07805873935714007,0.16368696165785104,0.36034190712265546,0.14204623719013887,0.10457167422743083,0.09278603180782195,0
0.11506768338700454,0.04644759472193295,0.4355759687569852,0.19471354572494123,0.12176074324007197,0.08145492300723328,1
0.11406332997845045,0.1405989323781128,0.3755898933768336,0.19527299934151232,0.13082642356537588,0.09086542204000832,1
0.10182144271539369,0.03579996128033299,0.38062783289402946,0.1464302837343589,0.13166220371970416,0.09775819298063612,1
0.09102006698504604,0.1278135618944939,0.4020473263751367,0.1647237400022583,0.13070023999777058,0.09771415313499002,1
0.11624823709747611,0.1273232277750065,0.38257274878704367,0.2231533687246084,0.07969201170919116,0.09104546808591354,1
0.09900687962303578,0.15081411407111012,0.42750897631026435,0.17834293801627427,0.14584968530726844,0.08446982679914981,1
0.11072469851209157,0.10692940933782998,0.3731766753025428,0.12218596732095903,0.12634939987368338,0.08298146987337265,1
0.06519304523636921,0.044090598212708665,0.3638842609917789,0.24087071665926627,0.06731588264442884,0.08227082706950378,1
0.06811115775379009,0.021653124713893693,0.42295407702760013,0.1367372581454059,0.1155645282474154,0.0816576979069517,0
0.10701791717980609,0.03593098574734742,0.3604626127539113,0.22941057409473598,0.09460098809546061,0.0925202709222219,0
0.09085293584810863,0.028496078461040058,0.41743475734916424,0.16954805841442971,0.15936135543685326,0.09909153830418879,1
0.10356729628694525,0.11695869520356458,0.4180990048123763,0.2175274612263155,0.14110847138069654,0.09722102498792125,1
0.07025462481527912,0.08431840651807383,0.36330868705049185,0.2042567616367834,0.06965037891503113,0.08578605293924256,1
0.1165354159950733,0.17887971885294793,0.3766636303151315,0.20131829649378358,0.08908354050136977,0.08562602665457263,0
0.09128831678162448,0.15252640141287355,0.393603097802647,0.24921171197888842,0.07595953586912801,0.0938736992948841,1
0.11373746427849829,0.1743925841402599,0.3751108415224977,0.12227770057299944,0.09754217342386809,0.0971741029709052,0
0.10283285097234618,0.1286222717838089,0.39328900557750684,0.12429100503074104,0.06470299331743783,0.08117085887253153,1
0.08615673838903594,0.16742115040772973,0.43906131166408924,0.17342168335130118,0.11300393200980735,0.08043850739355832,0
0.11480804219177185,0.16166344411472244,0.37584672337241487,0.12445152787774948,0.141997880104411,0.09845920120990417,1
0.11184218829036405,0.10769845127954787,0.3914038054489811,0.1026261361272642,0.12409466355940783,0.08364741175017334,1
0.09510625853968038,0.18231679756306662,0.4008146913494452,0.14819305877630487,0.13089182021936552,0.08479404313464792,1
0.09156022754105328,0.07392625624368043,0.37517676714925097,0.11114643503364696,0.09353953693851909,0.08568659364660665,0
0.07825245556440727,0.06824779741989456,0.38372241634475207,0.2231397336866694,0.0773804917222061,0.0805960494115142,1
0.06197227297162897,0.19190771453997085,0.4206225476515431,0.17496348723349114,0.07374412622885121,0.09621415600345298,1
0.0686404967319022,0.14047164431702333,0.3841992173305377,0.1310280195702375,0.0920420966424623,0.09364238783485615,0
0.09925375755354587,0.12474867255805394,0.42922044732344034,0.13066008557240913,0.08659178292007418,0.09433653729152766,0
0.07363142712435286,0.06195581173325872,0.3636976704582461,0.12855392864895798,0.15449077603548808,0.08805577099834605,1
0.11410826249344705,0.14225300774564673,0.4208956507588235,0.13558700650308053,0.08097964421600772,0.08973277587336531,0
0.07058253362781787,0.09792937835355088,0.4143439305573161,0.13375187459506055,0.10866921830809435,0.09237325713615314,0
0.10366728206250042,0.021094173444394213,0.40227910516551135,0.18540801576650368,0.13171333905558524,0.08587518786714285,1
0.07313782131751886,0.15171456048258494,0.36357820320111506,0.1302179246375896,0.12899988470614038,0.08685249248789674,1
0.11101148974116272,0.08968966199172135,0.40758409763135367,0.1703398713777586,0.08773380851143396,0.08708293907642262,0
0.08399930919331183,0.19725052609606378,0.43269355115594255,0.16469499415632383,0.08247987146481724,0.08028980100466636,0
0.10917014335152103,0.11849112091946357,0.42519009596591517,0.1552995436596716,0.09526761811166115,0.09478485922860269,0
0.11032523586366777,0.0632043663222074,0.4162731693434633,0.11419808369753812,0.11709632146165552,0.08141975336293802,0
0.06982650572833878,0.04018020792838311,0.39502527015745026,0.15458581617462838,0.06270509340132667,0.0831546007587145,1
0.10776979838985817,0.07960131047638215,0.42909682879146804,0.15735572373280804,0.13334726081539625,0.08861312070601272,1
0.07773219967781755,0.13754761450530736,0.3807875627683783,0.17224064668825273,0.07965482122681662,0.09232726062595371,1
0.07978302490525789,0.025002266475530353,0.3922136798213038,0.1489448839680391,0.08373937211154273,0.0827692820031381,0
0.11552609249771326,0.04210955389840648,0.406841664670102,0.22577785638035688,0.15260893134911735,0.09298815525676893,1
0.08291259374001335,0.061009628039306776,0.42223433463260185,0.19321211863897098,0.10582099427432992,0.08230446060995435,0
0.0947504000166921,0.035817748483899695,0.405299623718535,0.13656740461778613,0.08767431754469443,0.08919492002543372,0
0.09173795070023497,0.13904653780022666,0.4358782764945881,0.20839952114908114,0.12267911075509828,0.08638022411673522,1
0.10567185158612522,0.12391015321572971,0.40038346431554384,0.10769381396420481,0.07498384976216446,0.08913048940585476,1
0.06719985757393133,0.1808483985183986,0.3600040542723463,0.1607596891567368,0.14743266423028295,0.08732680687743305,1
0.08605321222431993,0.15680857666283898,0.36692408915986424,0.20908630890826607,0.08264916821758125,0.09392529153628218,0
0.09020134147193277,0.165419286220312,0.37861560248754833,0.24595867512685501,0.13447681060860958,0.0874976402700092,1
0.11367071468697926,0.07168278764097707,0.4330618236204327,0.19020920489000231,0.0715294794442355,0.09755104418116965,1
0.06885507493704127,0.17780256384332138,0.39720781478481204,0.12380787467955315,0.10525485781251229,0.09796958546618237,0
0.07020505336417979,0.09961795987855852,0.38396076339233337,0.2055356123409895,0.1524952233665855,0.09570214262343275,1
0.06550459905997774,0.13494225556475628,0.3994438801746096,0.12450664488351726,0.06515260234577588,0.09133239380677012,1
0.09478567376519931,0.18674355975298976,0.40121120076739253,0.10815034364593429,0.08698917484421018,0.0847446527507677,0
0.07204201154828709,0.031235572131509008,0.37608806716951193,0.15139937813125667,0.10603033550946245,0.0933275162730338,0
0.08225785031955214,0.052025217028947746,0.3910791819603889,0.14523129547929053,0.1419332096633757,0.08815197748205458,1
0.06924523306699838,0.04796010899115878,0.36419010005307234,0.182918670496366,0.061166074247355484,0.09964655732066463,1
0.0667171800327692,0.10423834770728398,0.4069740983792762,0.11488776055614275,0.1386538333581761,0.08095882743902541,1
0.11624677744723272,0.15037653928353925,0.4291737132265068,0.22794333259392083,0.0986736966896539,0.08150161302653913,0
0.09200848086098304,0.1998277966174966,0.43857868068137573,0.15528362142215665,0.10597466088248271,0.09909990227887291,0
0.06778484724800499,0.11178693412240656,0.4215323276801137,0.22435589065738254,0.10824019256826437,0.0962133254882787,0
0.07668519624109646,0.041052866001020115,0.4394415310264185,0.11237414414305466,0.10000262598073326,0.09761815768943151,0
0.10940365692493513,0.13371364493183893,0.3846779433691814,0.20930005207056424,0.15768172406460434,0.0824163670438213,1
0.11044095301340826,0.14281688485633176,0.3643049179320811,0.15552445085893832,0.1341568544639593,0.09256711313691751,1
0.09863213565878245,0.08930614214820956,0.3991638969959317,0.10017032720737463,0.1593278766966149,0.08365586076518225,1
0.06918288206760419,0.10496037062297865,0.36162965474426473,0.1836787747264496,0.10453944526143374,0.08197495497830347,0
0.10188607218906172,0.14717882909909547,0.4349182997540738,0.155812818596737,0.1126298703131188,0.08736774495738046,0
0.09406103482155381,0.11060295909840595,0.4021316052458599,0.11696970740332335,0.12428367529294353,0.09693374051743196,1
0.08998055019938514,0.14085944204949327,0.43694100705260874,0.24417089531394898,0.12728862531867963,0.08125446469932168,1
0.07448894557661691,0.017938889226998486,0.42575375842374485,0.21751349906061973,0.10614288505089103,0.09260539239721269,0
0.11489132246824643,0.13854738798246125,0.38578235401293054,0.15683777489413253,0.1184206550080762,0.09087698037489825,0
0.09275284892391522,0.10063142660003827,0.4337962229549635,0.23681458018010698,0.12896821164067251,0.09778038606492162,1
0.08986506602631288,0.1589970929747059,0.36414236459066135,0.1740525715322085,0.09345610538316915,0.0990996053496748,0
0.10015305674304731,0.07257248507655001,0.42980764182411546,0.11317574374966725,0.13912551683818902,0.08411492957492743,1
0.070181392026157,0.16276678074246015,0.406588057915568,0.20970545276061647,0.11937187138124074,0.09345242895919847,0
0.09630587195811768,0.1980202512041014,0.37085412699437137,0.15802954523464963,0.08284928045184221,0.09055866252149858,0
0.08999682618171391,0.0261347606327455,0.42357073123150146,0.14738457769202434,0.10280968442458252,0.08695774128603737,0
0.08869196390671519,0.0857448275307598,0.36838050511914733,0.17063357640586457,0.14876427950757554,0.09614014147185886,1
0.09693219561099786,0.02611119391500536,0.41236325338816415,0.1190991375219509,0.1551543349316185,0.09404840407267692,1
0.1171856165947048,0.06194648425573429,0.364911865781192,0.13780476190482702,0.1398183477455046,0.09501665772265752,1
0.0734007117421122,0.07362751982866075,0.41119162436664836,0.21206224297907772,0.1430665182005178,0.0862286976157448,1
0.11907810309233527,0.08961665806791891,0.37739559313812626,0.16808873110621214,0.104521894372833,0.0986717051034068,0
0.1152675067546976,0.14108626528717533,0.4215838022404786,0.10106245042517088,0.10442881905124332,0.09040971662806457,0
0.11509077372715512,0.17364726002380004,0.36756284286562557,0.17913719249505097,0.12121812064486338,0.0936654361532068,1
0.06682752575564196,0.08758560049516172,0.3641996497768069,0.24866270676498206,0.1356565627224222,0.0961793678475947,1
0.10805894912792635,0.07464917046833264,0.3617249069674447,0.1431781182068555,0.13130606916574245,0.08576917733017442,1
0.07165932396753488,0.012970997017918453,0.3918031069228207,0.11855815945936814,0.09238165913984725,0.09534836557379237,0
0.10213073777739078,0.17340941706190527,0.43149233021533845,0.16728337342383834,0.1247113146664276,0.08410717738087609,1
0.07121172721655275,0.026476662957454232,0.42383660400441936,0.2184019332247512,0.15499973661869587,0.08667979692115872,1
0.0786857142191438,0.17237859273000095,0.4172658753499594,0.14256201260218138,0.11808071545850493,0.08680797561976715,0
0.11691753360267748,0.06715644206554207,0.43782175414167085,0.1631897082173969,0.0750179908864474,0.0818499133518244,1
0.06208208414221303,0.14388899373924902,0.3935441386002584,0.2130557465370547,0.08604385290052695,0.08979325779687183,0
0.11167013773528497,0.1586705888902598,0.3619801143515484,0.12169135202358221,0.07791090706950868,0.08839026941882418,1
0.06542864188869,0.09472343656287656,0.4065128378665459,0.1788619962419155,0.11544774704309801,0.09075668681911937,0
0.10351061550967139,0.019228048460523544,0.43448446013775305,0.2376043388547747,0.1393465136302663,0.08885758600976336,1
0.06535798083022737,0.0947755471722383,0.386926864051771,0.21731700781958985,0.0684314369961109,0.09422245931775251,1
0.09322314336912454,0.13120324090109547,0.41219315953160873,0.20894797384922514,0.15402125560960883,0.08012671918476456,1
0.11876114432341686,0.15875458082115937,0.39252640412057627,0.15706934199717926,0.09507180035947563,0.0911326880389868,0
0.06647944272575546,0.03493972176237843,0.41122787332860083,0.1959946549979008,0.06625051918408767,0.0953664661618364,1
0.07480029030162273,0.06944000182714123,0.40150737635984374,0.13078763001315932,0.11571226827458136,0.08481141621001306,0
0.07525887827780331,0.09090890605438523,0.38847598286975876,0.2179345052920339,0.11530064937501133,0.08216276058543527,0
0.10838287694101015,0.03755348695154768,0.4282332336904761,0.14061958428546717,0.14815303106829608,0.08447308347209515,1
0.08671805311187833,0.031767515771451996,0.36207366633665505,0.2245477891281608,0.14226012441606556,0.09166080928178935,1
0.1155276356648805,0.18635699418450877,0.43191437544689004,0.10665368054245018,0.07239147178322891,0.08260703796521496,1
0.08215078928863823,0.18021109480644165,0.4337849503928718,0.18113934296408682,0.08008244543271101,0.08737317105931791,0
0.11295114744829965,0.04665205400317578,0.3961385605271424,0.1860118541744748,0.1471367903889011,0.09982018212517121,1
0.09222939819551712,0.04594282965979912,0.43585150244732124,0.24337840059463497,0.0777729082089904,0.09113578854491072,1
0.07657774658982508,0.10708199329896245,0.4359917228191998,0.10859933348868439,0.11440732845510831,0.0810776015667205,0
0.11506105445952519,0.16086452036237908,0.3825222354657324,0.1611733703656325,0.1555855184122047,0.09986086364185318,1
0.1171585756813707,0.16054626012466025,0.42112090481893466,0.206613386187398,0.07505777809809824,0.08147471072549606,1
0.07432776458049324,0.03541357705222644,0.37107962949382334,0.22404975499148633,0.09938526399486333,0.0830145405583566,0
0.11463241619802683,0.07578024353386913,0.37333890649486823,0.1418631964921684,0.15633310453914068,0.09550981918665523,1
0.11930583843308443,0.15058213216346075,0.4322155983695038,0.18237291581429926,0.1312303793624246,0.09586346714912389,1
0.09307608883900186,0.08161605340136412,0.4105790485190559,0.15926715016804338,0.15565498452866927,0.08027294510995948,1
0.10422260560713768,0.07129431431595828,0.3859812825429634,0.10766463630198167,0.0627298664356629,0.08599749119949981,1
0.07153236994536336,0.029004616873246087,0.3691092280217894,0.166718448556248,0.06818506347701526,0.0986871335518099,1
0.09736763213504304,0.01362790856748878,0.400281883153874,0.14734004667559936,0.14552746719904916,0.08667367611175322,1
0.0910281646831112,0.1390669987776871,0.4146426378431647,0.19159336949394562,0.10621939966159667,0.09534573540095935,0
0.09627281170722252,0.10069822379765143,0.3804340879228522,0.11058294558500037,0.10295011588084266,0.08069606511110686,0
0.068599548020723,0.08512784766132356,0.3716467745970969,0.17400689167905226,0.15494235192562825,0.09546762583779445,1
0.08967468546554917,0.08863860125869183,0.39417094350984005,0.10425172946118591,0.13696349683068723,0.09997571045246227,1
0.11728481388726533,0.0825509321240465,0.4213507429860217,0.24036122878673963,0.12763379446421325,0.09638877122181556,1
0.10990259166397878,0.13797368321737585,0.3713949024282737,0.10177479634895767,0.12401747674463781,0.08530420589222826,1
0.08597479747803118,0.17925366719019045,0.42320917015996834,0.1698283678444184,0.14233632878345703,0.08617063481501323,1
0.11178069392481607,0.18495342372898727,0.40287967208054176,0.2414601162166485,0.15701585360797615,0.08460690707225675,1
0.11629806293939443,0.04052541622530348,0.36396004578440005,0.20988879936094018,0.12820858250989453,0.09655419204350067,1
0.07670281367331735,0.1577329282793576,0.38024208940701093,0.1451087568693335,0.1256324498164017,0.08182739992984088,1
0.0744849063778988,0.05099929826462772,0.4340724939246832,0.18950146226100506,0.12958390102415962,0.0977145239636192,1
0.07248340995403604,0.06755187247989358,0.3992400760487189,0.24654754768483858,0.1207295746403127,0.0843244782471585,1
0.11866849616132913,0.13682323582061345,0.36095240907186377,0.159305738623938,0.06679768586667463,0.08119462204893287,1
0.08582970745375726,0.1496996706776554,0.3743494839334105,0.10736455216632548,0.1418005499493563,0.08444546148946452,1
0.07343779666645263,0.012174087948983515,0.4342885714614065,0.22969287615943906,0.10634341454256288,0.0937365422060213,0
0.09448565312143407,0.10767852432766704,0.4008585260225524,0.20503795616218737,0.15821686623116832,0.08918453945880903,1
0.06407478667623014,0.15579817301208873,0.4167918282926756,0.19661579027200915,0.12877689725674896,0.09136733866469937,1
0.11099678165338692,0.04312243255386071,0.37481377242753333,0.2317860325684512,0.09501987152363392,0.0994268858491283,0
0.09400774318119211,0.02245835035475712,0.42685063256476496,0.21377209387814658,0.13057707392787657,0.08497978317483536,1
0.06953096748919502,0.17521433535927142,0.3927625893024807,0.23241003376283806,0.1295210300573914,0.08812469926663964,1
0.06928352991302938,0.12019590685180828,0.40546302425692626,0.19029432474435204,0.1268413311226445,0.08395641831389446,1
0.11269043624223296,0.1880141355521531,0.41013414406280946,0.17478127836891327,0.08621852804001084,0.09512379085969469,0
0.11196942995899234,0.1430382287666815,0.3909961622902613,0.1167706293499853,0.09385159627052744,0.09437910389355025,0
0.08892420399339278,0.15646786172629312,0.43777113968638565,0.19333592184291387,0.0687426824667916,0.08783290243515403,1
0.08937156197510629,0.12204138802265845,0.38072041377909477,0.23122945992266794,0.14698905704715107,0.09976613598330589,1
0.08297856301422309,0.1278338419371453,0.4395813960835512,0.2268048957415097,0.06798137622844039,0.08092412029881274,1
0.11094702194744557,0.032926639321968466,0.4145036367954158,0.17078221163698842,0.12230112481771166,0.09820313806562217,1
0.10390916113611302,0.09536357450800677,0.434416058917761,0.21432005756447822,0.06034428639741346,0.09773763675553845,1
0.09460916728975081,0.10898133585982919,0.4121801213959171,0.23565683461988102,0.08032070386115736,0.0906188769143213,0
0.11760350058433167,0.06133833730103655,0.3839470346691376,0.24999409101089753,0.10945469755647189,0.09542322088751304,0
0.09638158522394566,0.05997699300756447,0.3629159616134755,0.22822710380428243,0.08496370715244375,0.08101666639740251,0
0.11054934426582898,0.13553083839300173,0.41393143757874906,0.1405900088172834,0.10298391402400876,0.08374782868065404,0
0.0855835026673595,0.19327446101025306,0.411235653307867,0.16578758614879707,0.0738561866207489,0.09609713643284881,1
0.08685094067384011,0.1349834312469904,0.3697756205801477,0.2283973682165419,0.1469311945155002,0.08610474291847742,1
0.09613544768013524,0.04697787354214182,0.3711585580523396,0.21438574778568434,0.11850537514999904,0.08051688732869484,0
0.10811944598711977,0.13304589600102174,0.4283643894464655,0.18441156708668754,0.09128779863723464,0.08375231847949352,0
0.07864964970013584,0.16309261481469706,0.3915142190934265,0.17577187439429282,0.11681406681347498,0.09007087351360099,0
0.10199146048820054,0.16996468045818008,0.4021392259649332,0.249281982120274,0.10500948828466819,0.08515511865799087,0
0.11595365456470634,0.13838873186398332,0.4279843243131488,0.24911781372264605,0.09713638643756473,0.08777098734657617,0
0.08178713275164107,0.1848541833427098,0.37159640194015675,0.10148870526619126,0.07950720595758883,0.09186508296898234,1
0.0716738507781376,0.1308997757404297,0.4274890169995401,0.14090441691520894,0.12004271409624308,0.08923749901121732,1
0.09650192089769895,0.03258349607556621,0.388033323128673,0.13415983244586296,0.12719340729935252,0.08656509943709466,1
0.06921261362265212,0.01914359124988913,0.42415090638248837,0.21113430418123857,0.08509169584538469,0.09270290814422702,0
0.10789246752057383,0.13633021473653317,0.4163023411947335,0.15855382498696086,0.10918353185360868,0.08712654467562388,0
0.08132718914758169,0.12693299019156118,0.42543842651888736,0.1896853062457456,0.14366645999704208,0.09350304347340944,1
0.10307338329765985,0.02430413667804602,0.40243569057942996,0.10677475508135581,0.12662807113321806,0.08818630470281939,1
0.10297997263825266,0.04001859207940185,0.405464271785676,0.1222300552184599,0.15388691380010974,0.09720734068199771,1
0.08595916104927975,0.02986313694677956,0.39276809917928945,0.24153201293609972,0.12732258909588107,0.08399912678858296,1
0.06945698870932102,0.1606797017516463,0.4024752825600423,0.14321498464354987,0.06869719276995251,0.09201704553191639,1
0.06218379868849317,0.1646440893246104,0.4294167549300698,0.17966581817250388,0.08392892824811259,0.09816041993829602,0
0.09415836063351071,0.07115885203815168,0.4381642551268029,0.1995546167157629,0.0843995362655249,0.09280235070160575,0
0.060208323301809016,0.07360810744248403,0.3759562541934935,0.22293743648069686,0.15697227206316816,0.0883250084524461,1
0.10792546764400632,0.04754773351310926,0.37772826901588646,0.10881325717083921,0.12649524862903594,0.08802705619956196,1
0.11847934974757063,0.02108200171421279,0.389594869182622,0.12505275026633114,0.11250887289797247,0.0834556557414433,0
0.07422835350423528,0.099009549816826,0.42673433251432186,0.11585840998267616,0.0805807404005758,0.08550751427410674,0
0.09165290647848906,0.055398144278397204,0.407623552624901,0.1457460473275116,0.13640030876296272,0.08655702673217638,1
0.09428127142681461,0.1622510351201266,0.3897994203281702,0.11847886258954743,0.12173244977417663,0.08926847881089518,1
0.08392895286881989,0.09950295354537304,0.42505333158703507,0.21917927165307494,0.08723791127590949,0.09832199124010042,0
0.06324390939628817,0.19029659692654535,0.3926746891788315,0.1492773409345914,0.12627449447216188,0.09977163592643169,1
0.09497674335511318,0.0452018816217014,0.37704549103066876,0.20545446502615572,0.1507029115069234,0.08248401725357245,1
0.08506614733829261,0.06400828217357171,0.4310555279120141,0.17198474005228676,0.07806321475842024,0.08467287288293912,1
0.08777338530017913,0.08453826967881282,0.38447376349092943,0.2065081431320338,0.11242708844850169,0.09028565609590941,0
0.10355215292043285,0.09470847126680842,0.3806533539740035,0.12580856197055493,0.06445731980372851,0.0903008775786085,1
0.09153593436965946,0.18077738500543364,0.4260849506838292,0.10571580213230795,0.1249444594390947,0.08165818644938261,1
0.10674798390977455,0.12160388946687413,0.4350098860308126,0.21940450128238398,0.15263766374861554,0.08087756061521745,1
0.08973558885919063,0.10250432284393783,0.42253055774093395,0.22928622264189064,0.1505160765048544,0.09278969206956031,1
0.10440080787056341,0.12294094982614542,0.3730835906926293,0.1927758245023356,0.10053408259248023,0.08096710350010619,0
0.0951862800158797,0.09301425192945816,0.40710785220150475,0.10323267899224574,0.08263256380164326,0.09249082087299891,0
0.08916817591819703,0.018376359667438818,0.39726255748318734,0.23648896587476997,0.08463512915881011,0.09790609403708606,0
0.0854026961202546,0.17280711715536207,0.4265325028882012,0.11411289652399949,0.14455384872305338,0.09518838215083118,1
0.11101127317908938,0.07585942188136566,0.4358597363084521,0.2426593877281163,0.09640303572957534,0.09345704194412519,0
0.08445586921518679,0.037682776197441925,0.3672413783931138,0.12964426338087298,0.06958738340996733,0.09808540382303776,1
0.10534136989668728,0.11492199315720103,0.3802972226628678,0.15724492798232717,0.09837621230778157,0.09558036820219418,0
0.07982083364329769,0.10812225853850035,0.3770840546218105,0.1267561177680007,0.14124247918420102,0.09398317730851288,1
0.11548197982345437,0.1731716335176578,0.40937081572620193,0.16427418291982843,0.1285664530386633,0.08465864301630804,1
0.08491613529087019,0.014017235481816536,0.3942651938230817,0.20659960746869516,0.06505306589187676,0.09553776966843064,1
0.096819157512986,0.052117867644088905,0.38955761443778186,0.24704623447213062,0.15263057032959615,0.08371232616011162,1
0.0607771064910399,0.11180766318728853,0.36128082256974126,0.15823954861679163,0.127681382067729,0.08439145659859464,1
0.08452560091687963,0.19002528882116612,0.4036189546582107,0.22851665492794862,0.14450579031091865,0.0896827300456563,1
0.07795936323002137,0.04782854534102038,0.3663789786517162,0.23958271819465135,0.14112093092356115,0.08374819790929276,1
0.09595527653771424,0.13914197197775094,0.39825304488982316,0.14550369057099938,0.15485022961790923,0.0816109917184141,1
0.11576417034290928,0.15564576276847575,0.40794359091164967,0.12697787968693988,0.08237345767298879,0.08561744577092067,0
0.06306415443878961,0.09493277734891077,0.43695819012911663,0.2344328427823709,0.11037817140499828,0.08684761484388925,0
0.08764778428021058,0.0950575431051566,0.4057428328029763,0.23017405369748456,0.07557028872338685,0.09373532699199363,1
0.07181573790408277,0.06909635671947813,0.4176897499470881,0.1618173272871376,0.1207459235358368,0.08422717145185496,1
0.06498226108977118,0.19781089575953573,0.38030225589170835,0.1896480153881004,0.12821573594782193,0.09246179230002162,1
0.09974304607652762,0.08128977605453656,0.39849688603088185,0.16413145254163192,0.1184327082697701,0.098560422874936,0
0.07665997694753257,0.18569986066410035,0.40716868627221103,0.17046101579911577,0.11477851845495704,0.08485395305896686,0
0.06916921381021585,0.11039772063441737,0.4166235096318217,0.21681885175807694,0.08681865620140576,0.08357806929716104,0
0.10466703938746698,0.058314878499971357,0.37348691795711464,0.2398051856415943,0.10312778126049993,0.09085335650253752,0
0.11927480834884448,0.17292294646613057,0.36699076489876026,0.1275050129987858,0.06380689905326073,0.09087378084088736,1
0.10270585364595199,0.06210866305938667,0.38274443762549953,0.1565900215930138,0.10348745479289297,0.09169677616915456,0
0.09921152552212884,0.14543080596204722,0.4194382458237902,0.22496836680221766,0.12954348376011288,0.09943165022785216,1
0.08880245830770073,0.149672459017712,0.4041096116111994,0.15114793932224566,0.06478004395460438,0.09139109934979268,1
0.0752645364243862,0.1541713127099871,0.371276555314695,0.15072155280456195,0.12196100518436653,0.08043382521489177,1
0.11708418682210545,0.14126112950840347,0.39156707915913136,0.13897528106384882,0.11344470025318396,0.09033923431937552,0
0.07083183098500033,0.1852500460738354,0.3979953936461188,0.18470225593214604,0.08578486576692841,0.08630925055023914,0
0.08321499676585499,0.024084593805444622,0.3824959777760133,0.1575410535592092,0.08474083674721877,0.0924346272822451,0
0.07336615017043585,0.06025374779543401,0.43272333715683386,0.13606452186684076,0.06964987815279226,0.08577827789824623,1
0.10244197240338763,0.03889361451440796,0.37191462883848064,0.24682344687196694,0.07825482162253994,0.09336706353224371,1
0.08554885637913495,0.03690676630481736,0.38417436930021326,0.14363914906527703,0.09018189347499718,0.0938737777941779,0
0.0750256370007981,0.053968641829207825,0.4293429816383795,0.23564459007245117,0.07433288625940734,0.08431828766672965,1
0.11505028315528001,0.13255533716130216,0.36189218251004257,0.21366338430619342,0.10897835966329952,0.0947055255317432,0
0.11243754538527481,0.09075488264866718,0.4291043796122613,0.2470179228814165,0.12312424159186104,0.09056138641113379,1
0.07255206321726018,0.18125237703956182,0.36866928153892214,0.10099765116544811,0.10097508620570861,0.09294157840243972,0
0.10264929090889803,0.18570739859632338,0.379366300479711,0.11810930277393328,0.14033490627960632,0.08034113995223142,1
0.06330071102186421,0.15311578550543872,0.36675611047320783,0.13443747505007456,0.08166079712786671,0.08473190258443813,0
0.11063312275074219,0.1771269965568686,0.3694023765050599,0.19885875305674455,0.12981354682116364,0.09093496231523292,1
0.07728394310037745,0.10029100146546135,0.4130357629932228,0.15554357648760497,0.1262222490997375,0.09688471543311372,1
0.11406569475584438,0.043695166588817655,0.39205356731504654,0.15533876706433863,0.06376819847874646,0.08043194776511449,1
0.10928289770551802,0.19660415771025153,0.4029981233119326,0.2221569076391385,0.11171391166660916,0.0954358890477785,0
0.10703398186955097,0.12780879747369828,0.4231209405864379,0.20256616521832227,0.13201802898685144,0.09468858274919584,1
0.11443429800602525,0.17085470294833885,0.3803064705195678,0.1740938582971543,0.12095610914907114,0.09388574333238238,1
0.10437006463674664,0.030116310616181922,0.43122054562071915,0.206510387111772,0.12989583232944046,0.09871507944026156,1
0.09538733735114528,0.07273457630687298,0.4050073952701969,0.22018181722448552,0.06010447477446316,0.08318299067451469,1
0.09688046566766904,0.17817977781141742,0.4293931745430182,0.13680361193674054,0.12637880430291432,0.0956628137822205,1
0.09183391884186969,0.07130662832265597,0.42751164743867853,0.1945037383925915,0.10808952521471432,0.09716518990637504,0
0.11130720120709141,0.10273250195267515,0.4066820689229629,0.2250879704753945,0.125565184463943,0.08391641256422609,1
0.11427646233805613,0.05138724531267269,0.36934439616761094,0.11852749005329632,0.1328953572075889,0.0832459558666405,1
0.08065886618998697,0.01593160990016183,0.3799520409849356,0.24998645910848397,0.06633368807137191,0.08203062460592825,1
0.07848366720061731,0.11458168389275972,0.365020030520978,0.12414204000173688,0.15425798625643244,0.08922676853870254,1
0.09050896261321514,0.1580053804849724,0.43843686123399944,0.21585118548238885,0.06619217067565684,0.09013021645394084,1
0.07926035041114032,0.05732935950999808,0.42488645756331345,0.14567568975686535,0.14119781144914562,0.08104710935226389,1
0.06427590298907199,0.06863082471274512,0.3941547870399691,0.24196230786177156,0.11945751486630621,0.08455207305689441,0
0.07871471087939039,0.15632272699974203,0.43630468759319907,0.14355750013892626,0.13650388491798196,0.09693094295512755,1
0.10541259339838724,0.15585910498183908,0.36661887688890815,0.21827756490075045,0.09619047572657488,0.09663589484843318,0
0.07050425722034825,0.07999793855331452,0.43703090643134457,0.15240531165781368,0.1391479775332875,0.09673557852336165,1
0.09794401568396563,0.02800180772282873,0.3993733270460424,0.23520506823337106,0.14021804699213875,0.09093714591951153,1
0.11177052933288381,0.13325786368822964,0.40412196462404226,0.1294494064456631,0.1365302050572867,0.09138168776703995,1
0.07764601304455221,0.17791365884321067,0.4357632774002853,0.14936774850973117,0.12071660361294909,0.08598472572900118,1
0.08232825064734485,0.16904159273141123,0.4274900197962219,0.2044021426022828,0.15199706703135796,0.0889555436432237,1
0.10126811392168023,0.1663303666689144,0.4251237272256162,0.159779366666703,0.11602637937552596,0.08909605406942386,0
0.10308595812491683,0.07260010340451876,0.3688241920687027,0.1045339287077584,0.15265497093616676,0.08022126686017768,1
0.10207844789282262,0.13164996274376953,0.43666154809115043,0.11422461759175864,0.14220367317308524,0.080808255920899,1
0.06252635651892562,0.04410779163758277,0.407689083871478,0.13371393266207976,0.1227496130633273,0.0816315434800093,1
0.10077532950570676,0.01605279041884947,0.41402581945089645,0.18272400377586462,0.10330534048162994,0.08334812788348397,0
0.11887303850462523,0.10873213390015087,0.41996061498345155,0.20803373028592353,0.10333801815125501,0.08444049046539326,0
0.10974632203422108,0.024142877041302538,0.41207550943455346,0.12561177358594866,0.07513711910536099,0.08834060972074538,1
0.10802673604963806,0.11346586443433315,0.40439783549865466,0.22485318638916102,0.14629909286902054,0.09637647196199335,1
0.09670339170011072,0.030182794254534455,0.405246860972564,0.19333553598786857,0.09463442071914152,0.09897402742630866,0
0.07263103653345337,0.17439771197501555,0.37108481002227095,0.2225889698071998,0.15163140387746285,0.08484598997369988,1
0.09082540902776697,0.060429785903822614,0.3952482648123245,0.1389716768982298,0.1598909544315974,0.0852325901391133,1
0.08173338445110835,0.0650451824416635,0.3938132551630954,0.18801357325810023,0.08221741204402401,0.09165954379373734,0
0.07166021833030525,0.09419661511567609,0.37325331158840724,0.1947909418161445,0.11178583938330455,0.09710397969034135,0
0.11535152728525469,0.09043130151236882,0.40840986120111955,0.22258974508982232,0.10858458870064755,0.08299317483832998,0
0.10117226313827951,0.06859585544122804,0.40006070910920144,0.16157389368420813,0.1546450473381647,0.08660118298905665,1
0.06333878922096767,0.17190408274705887,0.37299816924805385,0.17441491425037253,0.12526448615661034,0.09300909865077535,1
0.08972921332721191,0.03991899953285079,0.42921899442295763,0.10023393419211134,0.1140799225677891,0.09189130325450753,0
0.08750092693958,0.06111405791687702,0.36706757237557575,0.20555015904860352,0.12575914628561422,0.08518750110723813,1
0.10146417424113163,0.03328330331217033,0.43229546824568865,0.1331855878871306,0.08041453014808861,0.08671051629517403,0
0.08433263077542925,0.037948590972249376,0.4313961578589526,0.22831976815585261,0.08360524552260681,0.08531366528700193,0
0.06869573636724624,0.18662130445904698,0.4097421356963046,0.2448708977178053,0.09818649482720039,0.09208634650279096,0
0.0867138193635873,0.05993332093753162,0.38382715569833686,0.12350799890097708,0.10299821563458479,0.08615826349963465,0
0.07042143731057221,0.15499715103115144,0.36977117350289046,0.24624827602620075,0.13787045655849756,0.08345035043524006,1
0.09858747572742489,0.07016103232051962,0.39931577702989096,0.20034408785100058,0.0781205013612977,0.09771981425373881,1
0.11564514608037893,0.19590907344312336,0.37237292305599334,0.16405954777702314,0.12173198721252639,0.09159892477174507,1
0.07328159034363585,0.12836228844629521,0.36319670567547013,0.13111707153268123,0.06767222298401823,0.09529413827143486,1
0.11441283713440835,0.1074029079915645,0.3606852119231654,0.24014084075714157,0.08324777333969775,0.09481818043423637,0
0.06201140185089585,0.07540164571451577,0.3713014229666151,0.24781556624530585,0.1052901273090747,0.08002145846783741,0
0.06499386376541388,0.03063196232894989,0.36333212076140625,0.14182850851625778,0.08850738031840123,0.0934947969763331,0
0.11715897590479271,0.04698160969439581,0.3734191513934307,0.11965031090573702,0.07934640691149153,0.08490975028150062,1
0.09467556515531572,0.12348742626496544,0.3875661356485478,0.18535792100900123,0.07790172409017647,0.08410489353798947,1
0.10584761551217661,0.0257435836965491,0.42299845202261743,0.1392929476362321,0.13280843745529794,0.09810044499084226,1
0.06456484007423365,0.04435635453403444,0.41763325589766936,0.20547938884080763,0.06854156585107415,0.09777845657728836,1
0.08858458058342944,0.1795616164627627,0.3828269925520618,0.17105274761271866,0.15076519039583725,0.08140178962533579,1
0.07956988596645723,0.06824300678865965,0.3807840007345188,0.11966081834160307,0.10348981607470559,0.08611137213838158,0
0.0973710156312357,0.1853618389115689,0.36503703838650187,0.17510263805538487,0.06898443084873475,0.08071411228290565,1
0.06211869321987878,0.0141574188688495,0.38291656521691,0.13890332701618566,0.1295898102098516,0.08714903525607903,1
0.11812463124900266,0.10276757486227463,0.38528189698776716,0.18659906169689555,0.08721973215817062,0.09732414262751345,0
0.06735948667233572,0.1520619834944911,0.361851291794524,0.24336039352696529,0.09226299510282017,0.09629299854295485,0
0.0944970691564414,0.0673944267748012,0.42304787873659677,0.22929946226155157,0.142446982186607,0.0917103956710444,1
0.08218950295581068,0.12393998555447895,0.38615483872196704,0.21022531868078087,0.12086919916570973,0.080021558939055,1
0.06263517047649261,0.0528448509877288,0.3729894676086546,0.1130063513579537,0.12952702664146476,0.09063718167364622,1
0.06754027391604321,0.08377106887414079,0.40997647413627253,0.22299471718108538,0.12255806237642776,0.09410611357787725,1
0.1048028858719228,0.1407333461421726,0.36563553324837855,0.10575478221681343,0.1076106021324851,0.0839815824313535,0
0.09108343059584278,0.09286625131416408,0.4203441129555454,0.20657755409732265,0.09529452970539828,0.09707160759173511,0
0.08767125321951201,0.1053495991042109,0.3606359325608955,0.2031568164820189,0.14579766826345247,0.0882602321151964,1
0.0631176734829322,0.07643661032926254,0.38439965907960966,0.12426217434662305,0.15739738056468316,0.0886647782049724,1
0.07832192978433632,0.17785685515752755,0.3882668497592768,0.21585192245219953,0.13234140751137266,0.08518483692086821,1
0.06470319684516687,0.11593295772134192,0.38105188121699146,0.17146905601928936,0.10394209381006445,0.08013814663982044,0
0.11012656787137395,0.14019806798279333,0.39734682572716257,0.2122622463125905,0.13066385649407875,0.08668974798151331,1
0.0793509205732915,0.05996971156844341,0.42285828277857046,0.21247354304135133,0.07873939062713595,0.08405343706238508,1
0.1137941188199121,0.14454363414962212,0.40902367477809315,0.11657817327337532,0.14637338569373692,0.08041858697573738,1
0.09479512860926356,0.10565974782587025,0.36651933917271934,0.2440887924071391,0.06098323456543785,0.08872008131757209,1
0.07918584503352372,0.1920649222300916,0.3884514351736416,0.11209319310028613,0.0881649561844596,0.08650176568791663,0
0.09914071667568108,0.18479379581095517,0.40561726591029285,0.1483370142193129,0.13357247160169916,0.09644082532877438,1
0.08673465983596165,0.1778846520123445,0.36623182741208005,0.14391319547663742,0.1586595820049505,0.08736518058784201,1
0.07241843445436898,0.05692087324158403,0.39414333216879766,0.16699603796412194,0.122974347639783,0.09227101647771818,1
0.06811402842573028,0.044943237928271915,0.4096099901074418,0.1684062508144851,0.08402839061714804,0.09976951830942904,0
0.06917667804904942,0.15126145459289703,0.3740348221459698,0.23313455850926448,0.0918879782895667,0.09438140758496406,0
0.10800328353845176,0.15891986017042858,0.37522989054554445,0.1474039248722122,0.12578402071622374,0.09852175295906843,1
0.06923405157843789,0.14599261771142288,0.4236498027979324,0.21025092004499052,0.10089434517154919,0.09172730909830486,0
0.07951850125990736,0.1493048369329851,0.4069728743216204,0.16920826849659173,0.10164367106693886,0.09980418200687785,0
0.08234096616105217,0.06084935732006161,0.41112924793754413,0.1744530563236752,0.08871433982609035,0.09692071059881892,0
0.11952822468752822,0.11905083046878065,0.3799188686834405,0.20322190393005088,0.12581769236653925,0.08004111369777817,1
0.08282918113726209,0.16746341727814035,0.42810611394827214,0.20881441165537623,0.11184074647373968,0.08512302424366837,0
0.07812662954081626,0.06377144546710584,0.4335189765482912,0.22052780350333961,0.08436778881886232,0.08453553538290418,0
0.0755532573712325,0.11964244656346529,0.3862253040488127,0.180189927133253,0.07132761484013964,0.09408444272953286,1
0.08366833336047608,0.16553446283676396,0.4228827971243705,0.222614346560751,0.09645202236822167,0.08637788312999906,0
0.06655450135470943,0.15639260951994338,0.38204916714448245,0.2017307813393071,0.08439439821737807,0.09797877079697617,0
0.07018268732255446,0.18348434211647863,0.38491994999668006,0.19976032718782755,0.10871394736828818,0.08343411655489985,0
0.0895158122136702,0.059524704234497613,0.4103084895602948,0.14401232400521835,0.15046634730966818,0.08356613005068274,1
0.11687861762368229,0.17291163476668783,0.41114800385331557,0.21945613901861655,0.11653427823349656,0.08212864230201213,0
0.09352503428664166,0.012084625536353517,0.3759285183768856,0.2295150956173886,0.11716223552442093,0.09112521274600144,0
0.10226088466668544,0.10965831079797436,0.4133833093680547,0.16924841559817472,0.09892320658873338,0.09644455495030838,0
0.11190854957333427,0.0760935051210133,0.4205740259451494,0.11141965228547443,0.07000310527294855,0.08042383116905404,1
0.08230151705012445,0.08801547512821638,0.3819684623812222,0.2172030587662464,0.06873404555151165,0.09068658338822325,1
0.08818965566992816,0.11443512748141102,0.3783375870518535,0.13011278582220934,0.13135582105078797,0.09582402169359168,1
0.06667892776860915,0.1756985783890313,0.37482003394189845,0.19221186833240222,0.07262377309464284,0.09233333756930767,1
0.08277063294464922,0.013322424704010365,0.40505365522331704,0.13846143477485742,0.11236540582976226,0.08877024176262086,0
0.07154182921257904,0.18720141202820972,0.37924148986113737,0.1070953139804342,0.14661290890333667,0.08849467354009649,1
0.10425294518078743,0.16654205184103207,0.3828622501363763,0.1246423278669571,0.1583754619441038,0.08974837657669427,1
0.0689497010527412,0.08837451487673577,0.36211225834560307,0.12139019108093767,0.06553960527326781,0.09891713310697509,1
0.10171301447608444,0.09694588983094388,0.41031838723005765,0.2193672109674578,0.13542332640070304,0.08911915677729348,1
0.08733363092798534,0.045745084313712644,0.39901839610182305,0.10639480369275861,0.13711107915566773,0.09107842071998525,1
0.10953298769577116,0.10202334308312076,0.43949038358611725,0.14534450722135211,0.08430089353701933,0.09496967736881848,0
0.110083363826086,0.11931355352894422,0.42316370910207723,0.1873240190354394,0.09149686061950077,0.0980304584791379,0
0.06448230766449656,0.16963446884683606,0.3825577490151171,0.14996913476975704,0.13951612461993837,0.08034889088747345,1
0.06663900642111041,0.058225533328028656,0.3759811228882323,0.21250631257609892,0.0691673396108358,0.08815822472580592,1
0.08550402807743174,0.15746271904555123,0.3698241952838105,0.16425935184891005,0.09685018780200351,0.08134802699329952,0
0.08290885673355669,0.19343803655488648,0.4020049359844506,0.13783981346711965,0.1284691589567255,0.08309124609566601,1
0.07514884947762684,0.025383067328256074,0.42087884368883133,0.20385015447739446,0.07012677394217968,0.09618932087308182,1
0.07379558885064347,0.18131990792732716,0.42134737420754925,0.16540654804615584,0.13775840818825735,0.09469489847710957,1
0.1079952531288817,0.019051064482407593,0.40125020916497484,0.1204425470932569,0.07926283867288941,0.08205138274441034,1
0.10733781149698145,0.15811450263903293,0.3921338843858931,0.17166078756699776,0.0950852463256038,0.09815898913631496,0
0.07930275142050157,0.15641252170673609,0.41238155588839204,0.11480169686038975,0.06724636497499654,0.09465906448874536,1
0.0673284636013876,0.09439867084561573,0.36875484784627605,0.21709295421220748,0.1289907883650238,0.09803932751786151,1
0.10359897109894836,0.15557328145870827,0.4048756680761674,0.10497327160027789,0.093473391967368,0.090189970630039,0
0.08384293228449,0.12525667937565257,0.43264529995600176,0.11896844014000581,0.1436053225186436,0.09157641317142129,1
0.09133666195202908,0.1451698405206132,0.38283038519643076,0.23796378150688866,0.073797185250459,0.09562234098894869,1
0.09227562875232798,0.07388011912743211,0.3623649293425367,0.20455180311499466,0.06021839897209878,0.09016267223483479,1
0.11231872905715565,0.09165348050942235,0.4168320549950649,0.15603035613369232,0.10380550301075639,0.093473568724805,0
0.11069582509997578,0.13653858729438753,0.424225426872614,0.11950425120097044,0.07010673625602255,0.08012849443715617,1
0.09846824497883856,0.12132539142825825,0.43051843273408213,0.20973976889250845,0.11144451755582574,0.09258054323308874,0
0.06887224456435778,0.08268042117968748,0.37990232028367255,0.12568258364278276,0.14607788529565036,0.09897577773455468,1
0.07202745315757234,0.10302185972714259,0.4281686739002476,0.1145424505556138,0.06411794408285718,0.09990054313136087,1
0.06442035082294396,0.056766329616532024,0.368148294015043,0.23555593191737628,0.11299145979564121,0.08181226036866174,0
0.06726523235155646,0.061444529689293134,0.41963276487860773,0.1537373852429169,0.10059626709728,0.0806200307320217,0
0.07835576369271448,0.07271316393872285,0.3806694580141975,0.24135602674409856,0.1474874174799034,0.08534625653101255,1
0.07360274467517061,0.18714503418111236,0.43091127278253316,0.13375039624939838,0.15968345374809229,0.08374320947641062,1
0.06359612805641879,0.03498713912083089,0.4309598550587215,0.21330937778491188,0.12714159419202214,0.08009511186676901,1
0.1179449543435286,0.07446405245104522,0.43203142723200527,0.16553548213363586,0.08775781019265383,0.0930151135732312,0
0.06907731437498758,0.023104711126567527,0.37196626127129434,0.15176171763724736,0.06576315438072089,0.08359029337244538,1
0.07018452055843012,0.10014954892998383,0.4221362310343301,0.17102306552266494,0.14421693415354697,0.09975245419490297,1
0.11457508684202268,0.1855220376875284,0.3955036822512829,0.1625381911019735,0.10197371685276925,0.09967029123563645,0
0.1020185559226585,0.18548705437057122,0.3731552335141451,0.19774322506418895,0.1482719222060284,0.08580745432705818,1
0.08985681859083072,0.11776106368124373,0.3652907242655799,0.10133680820364674,0.07480058440355546,0.09513533115464168,1
0.08302083115507305,0.11583580384129287,0.41470246050220183,0.17484117894387197,0.08124346323295288,0.08484090090190669,0
0.07397620579073158,0.17048262047990217,0.39707050106924174,0.10970747431250216,0.11120121618220347,0.09882334585770672,0
0.07430246855993658,0.060976213730151704,0.4188245399961934,0.11317984814975379,0.06047509792750281,0.09209959933672969,1
0.09508695776125323,0.1480634168542038,0.4037520229553915,0.1997408085489819,0.0977885602769496,0.08711479236943957,0
0.11369151081256243,0.19509543578195504,0.376997968210416,0.10005122882005961,0.08055610167209094,0.08457771778185584,0
0.10366855899904182,0.06862925374659135,0.38727764072846654,0.12756791178901383,0.10293804289369496,0.09693118862599856,0
0.09114781445734702,0.040877800571352964,0.40247005871706126,0.17710305645990654,0.08816590723901087,0.08399495313761161,0
0.09420539257211936,0.1261288551605096,0.3831530286911934,0.24811985318205024,0.11825355924508305,0.09353158460283358,0
0.09772949203823375,0.08385598380253972,0.40446683695040464,0.17025963069779937,0.1525947940683316,0.09207361266872233,1
0.08090653811427957,0.19674584194957714,0.42435083244928823,0.10975881662473036,0.083167580951662,0.08555452495412524,0
0.09140372212365061,0.10502775376451545,0.37807522897232193,0.14665517005731465,0.06514409281571253,0.08698010438934438,1
0.09249979280288842,0.187078120949078,0.3655553018953591,0.12618876944009264,0.09174689366740013,0.08887689571856976,0
0.09729091437636142,0.13807805622133795,0.4194086901504987,0.24701234343223205,0.07229714574749511,0.09299792810730369,1
0.07203811892963433,0.06278958370543328,0.3671497269409637,0.20253567390642896,0.1249125391074112,0.09104403511666558,1
0.07012387177449887,0.08363258196706574,0.3979100047883467,0.23265882177624533,0.071416095068994,0.08954064301768956,1
0.10485380419064984,0.17705642417651882,0.40197118173962415,0.16118504082894694,0.13015292929707792,0.08194517791241694,1
0.09487298728696403,0.11938891046357974,0.41274176506494725,0.1714055318099492,0.09872492632889947,0.08799106515120636,0
0.08262865370335909,0.0721652029197349,0.3995538801848376,0.20873746902476864,0.1247793986362259,0.08588263217486568,1
0.0771013396828207,0.18193879047955408,0.36129373801115594,0.19825256860316545,0.11218664608725683,0.087423545069955,0
0.09272405810010484,0.05466186773864107,0.42010816333518325,0.153044219500071,0.11475081299174673,0.08534099053455123,0
0.11548291390005733,0.04532130659433903,0.4084112006161467,0.16597549226180247,0.10822154894137648,0.09451506925988935,0
0.1110729277191371,0.14110249510862471,0.4136336394507745,0.19274575322902787,0.14850116455415224,0.0991836325624323,1
0.10170288347219682,0.11346024894431717,0.37904647838705663,0.17093245394260687,0.14466113137345576,0.08440610126588106,1
0.08736045743750849,0.0765240999969155,0.41700199051966774,0.1307972457181589,0.15334481774110606,0.09035202323283051,1
0.08680332207590392,0.03053724819173085,0.42993173389513023,0.2406230410022618,0.07653545061783215,0.08223463156329273,1
0.1145742011999272,0.08051713793198015,0.4398317959491987,0.2236669016523042,0.08115136488432935,0.08820468256515265,0
0.10073683455642074,0.10041218720638181,0.4258418134802324,0.2024171565251408,0.1567829962310559,0.08423403470118393,1
0.09693572379765086,0.13308585553803112,0.4298229072023898,0.2453741506696115,0.14255343227214812,0.0968820323144533,1
0.06325317877945488,0.05547873109509403,0.40419690468047487,0.17035080278174664,0.07984639615116064,0.09313248382659511,1
0.11982484938604696,0.10400573309337276,0.4218982904545641,0.24788819664356476,0.09923060143699697,0.0832687353364607,0
0.11531963354941235,0.16455343583139267,0.4065304077290975,0.12072111979742417,0.1537265720339186,0.09042576878302891,1
0.09286691077147598,0.1865988978039976,0.42421424682094927,0.1126219641442841,0.0723975472487276,0.09457514934368488,1
0.10432767522338249,0.10375724277527604,0.3869914351775759,0.1992186897015012,0.1026420114802086,0.08833931315941004,0
0.09231622455853851,0.08925176213070539,0.4171070401297689,0.19459746711010045,0.07589337400546459,0.09273912213855832,1
0.06580541956489308,0.038683923618092454,0.4393784729847428,0.12487506501708205,0.1372395859527517,0.09671364923042068,1
0.0820560251923884,0.17971058335898815,0.43103472878774757,0.2239010685844559,0.12379914593706086,0.08411403553391718,1
0.09748779028370082,0.05326395878295569,0.4135127602213553,0.17779073169249224,0.08440101075222198,0.09593011894629916,0
0.09110193803660818,0.08240838466256045,0.4202544988030817,0.17267565935541268,0.12700592262039911,0.09332315349025114,1
0.07247805795017209,0.10783568415325923,0.4086003504264783,0.1594480878779277,0.13964145365628355,0.09831814314936876,1
0.09171900469218637,0.08262403878635112,0.4083773677112414,0.10377480098289141,0.10981081830601344,0.08699512616648332,0
0.07795360635502588,0.04631804539003208,0.3634348727785918,0.1508066931141118,0.09521079288510911,0.09921534887985008,0
0.06713716877437459,0.13548305912662,0.3859914226562894,0.1679506565624546,0.11690661171206246,0.08318048978664938,0
0.09394968122195714,0.02969901932462331,0.3793872231746692,0.19087370837163048,0.06630650895439393,0.0896233537612583,1
0.08797328254514072,0.12052887845304004,0.3822655909898721,0.20048008951420035,0.115884324080418,0.08041725302818574,0
0.09632798926928719,0.030380336614578833,0.4222833836451503,0.1807959715406301,0.07229212258700467,0.09746630179593035,1
0.10526996872501049,0.09384222744520589,0.4315018622923141,0.10558058053929617,0.0894072512324913,0.08711619626134087,0
0.101212656683319,0.04774297013601976,0.409938811329797,0.14020166018417513,0.12983256267092658,0.0864096366034305,1
0.06440605067770787,0.14246755320855145,0.41739055453620394,0.24429769970787732,0.1342137148891897,0.0874494227553767,1
0.07653313094273755,0.11544414110214635,0.4088675147206236,0.12073692816450944,0.14804557791707562,0.09674452853133204,1
0.11291551538532257,0.1778894105158519,0.38910397403694597,0.19873325898894484,0.1024306068374104,0.09429850690679915,0
0.09485201561791051,0.1897669811910763,0.4146307365382617,0.14383837003894,0.0976909251808041,0.0982584541083916,0
0.10885092113135927,0.1571296900161285,0.3644615681302163,0.12305919988918007,0.15812240463348998,0.08355945582360312,1
0.06959973842181434,0.09306674836303049,0.39588046991122977,0.13712273233490652,0.12340051382362001,0.0949710278042017,1
0.10329251568703142,0.0622903852925666,0.36679376655502477,0.14643544158007055,0.07960219666263338,0.08717403923430454,1
0.07029148767556256,0.18471194920131348,0.4356745162861994,0.23085177127625664,0.06814613356680806,0.09610462250898533,1
0.09102553038008963,0.07872109045878166,0.37738813132407745,0.17178529511321344,0.06576916832200339,0.09097488483026264,1
0.0889633801346202,0.07796587964023659,0.4051020405452606,0.221702933578951,0.06444267259353406,0.08466294170740277,1
0.07491741569983436,0.12676134003158554,0.4092542796433143,0.16223473182825462,0.11635962134469913,0.09414900633753912,0
0.09946241347549212,0.1164228294854029,0.3611586330103511,0.1831431261252791,0.14729017666688077,0.09097538891006347,1
0.07031267653118732,0.0410279027204457,0.39302433786481394,0.2424991045608922,0.1289177944684035,0.08247920382192464,1
0.11069747324393378,0.04996467519087952,0.4398476150247299,0.16157404134027184,0.08591077787912663,0.09755046337321227,0
0.08203478924308,0.14157602600251698,0.40683035641648485,0.22863402602694693,0.09165944048746028,0.08341197728042729,0
0.11435349779407215,0.07640410675794028,0.4029549462275918,0.1329453616996951,0.11225241849867479,0.08766621243994197,0
0.09794870082455853,0.0938381206547208,0.436456948933711,0.24432108684730264,0.12292247364402929,0.08239897033938816,1
0.09464826285012995,0.11213606476835228,0.391145673705965,0.122625288575164,0.12985700291958108,0.0919092983879925,1
0.07016428580695783,0.14201828584073137,0.43799450732723566,0.24196779209793373,0.11422664572297488,0.0903952277029523,0
0.07248796959432457,0.1274308440278726,0.4065280226104767,0.23191767059531912,0.1335069945056302,0.09870011653963763,1
0.11078746612123386,0.08853093462450543,0.4125060958146156,0.19899539808610875,0.08258140388298449,0.09923218901009971,0
0.10861939027347721,0.182234791909589,0.3619588382657846,0.24761307451744713,0.1343994168575573,0.09717084986974493,1
0.11530299816529524,0.054859566646537836,0.4356570855365981,0.12270910717294131,0.09145153468218427,0.08545240730547413,0
0.10477835262915022,0.15761270915906722,0.4170724808025702,0.21264116643136954,0.08935896756906991,0.08394972832750595,0
0.06849467745329724,0.054682746362627044,0.4244273393690658,0.16867623339764165,0.14287721932203656,0.09459433880415599,1
0.06728079315548598,0.03536246907548328,0.4163362210844913,0.13145047728961032,0.06149884681873513,0.08834925831002294,1
0.09319393271228413,0.09704661816697398,0.4310518274176066,0.23829521725455946,0.06075731360213926,0.09031359198047123,1
0.06484780901350569,0.04726027384001323,0.36594825940396764,0.15742322871608622,0.14890968567446622,0.08794792358716776,1
0.11468805403142049,0.11795902729674489,0.42914144606835325,0.18213577680380713,0.09927658505498421,0.08332751823455688,0
0.1072632050363474,0.14574537728713582,0.3674408381712707,0.1617669236758839,0.1525689473024358,0.09658491211593963,1
0.09174812482011502,0.14332081372032637,0.4132211448609941,0.17941537718784695,0.15349797806024384,0.09577971923849209,1
0.07652581812552764,0.1859353193711582,0.38114744818136626,0.1900380998109496,0.10176739527610147,0.08547438623068344,0
0.08604112103487802,0.151406152604104,0.4222709640570082,0.14325868255498764,0.11658452783019038,0.08376803369907271,0
0.09498854568190301,0.1120915167676376,0.3612377499996117,0.2239194813333704,0.095554772401436,0.08792486671184566,0
0.07420547675173911,0.14867497278667274,0.39984657403139745,0.17846489866514487,0.0795920490107215,0.09484336391554153,1
0.10962877417371936,0.027049891776948942,0.38485626718273613,0.11400277373468048,0.06606625299163928,0.08834652328037015,1
0.10151186807258006,0.02078756397454492,0.43050066894108613,0.13911278293098647,0.1306885036871454,0.08039908858799727,1
0.0864601416560689,0.025215640871954284,0.39379563791165517,0.12765320579906003,0.11162157086339186,0.09108802969119165,0
0.09362465265243614,0.14972975909814187,0.4237272965743173,0.12271059145364474,0.07678536131167542,0.08899440853107124,1
0.10296746684694871,0.02174555570930075,0.398024314402149,0.21976654181403193,0.14097146515226153,0.09723415771174608,1
0.09071532888322423,0.1883124860382608,0.39665999495430637,0.16680104120582295,0.08850335935336537,0.08421777329680254,0
0.09455326096674962,0.17524373668439364,0.4295601396454549,0.17793587867843982,0.14148387615569108,0.09341725011686186,1
0.08169459143152123,0.18235733342102206,0.3634219647287233,0.2283833670128711,0.1043276597528858,0.08601977307341445,0
0.09804678897161676,0.13088374721570561,0.3915600121564242,0.14961512820145634,0.11836739215340192,0.0921312779465008,0
0.08158009196160204,0.19275577834310534,0.3611682379751998,0.1056096846192878,0.11087044210518578,0.0845002272370878,0
0.08090419419333769,0.14576355914460654,0.38463539849297107,0.13849917491146008,0.11250874662659144,0.0833294207342532,0
0.11983024464285448,0.11736830764062725,0.42501654199682515,0.10275661923423243,0.15474415154333848,0.09881163501941062,1
0.09038796331607578,0.16992740565657674,0.3752529218958266,0.216215772581274,0.09716460235177334,0.08275079133283636,0
0.10268404567708643,0.0543827019536271,0.39569641733163574,0.14052073363650885,0.15918001413211613,0.0811265525101577,1
0.07731546891997854,0.13467066586792828,0.43795348230379255,0.12468594437441154,0.08925830532720065,0.08654246379971053,0
0.06259558590157431,0.08165523483189674,0.40470139544835904,0.19635145086283906,0.06634866738105928,0.08199076575408558,1
0.11351144295585557,0.1730884471424072,0.439148379221415,0.15060389900053842,0.07069763800590498,0.08234297905157337,1
0.10956359017831058,0.0693275533281289,0.4323819045140395,0.1306224250792854,0.14927809156843472,0.09359764711863766,1
0.0926897950673897,0.0319948073419802,0.4236053302072452,0.24505198592239422,0.1479278868669759,0.09133361023727024,1
0.07348017144840376,0.18998824032425604,0.3838835635744867,0.12241287925677242,0.1476856159834708,0.08202640133243898,1
0.08371660552956266,0.16313384571134582,0.4253143247034574,0.24088044650005017,0.09583444901037572,0.08933570530046828,0
0.08607247290340861,0.1378142848871399,0.38877994591008896,0.1536879799891902,0.11945327769130196,0.08500801779288145,0
0.07285399790222379,0.04997723653893946,0.4187272145990827,0.16066159418395737,0.07061633272769523,0.09506365104045594,1
0.06753619711838524,0.05511371773265018,0.4169929933260082,0.2288657472306688,0.12369867897589264,0.09841303546544815,1
0.09821159003063665,0.058849919060630765,0.37241739622548675,0.19012847323829604,0.07508465535094269,0.09649516492896205,1
0.0775040939055045,0.13786268115846279,0.39561776021074047,0.2119241659417495,0.13841400577407842,0.08199893792122448,1
0.0996415969652,0.05839921246294777,0.42030728268193956,0.16159389085672055,0.08349546619885848,0.09226124050602025,0
0.11680872474318224,0.14787614382021913,0.4396363639897354,0.20529156273612142,0.14797713022762293,0.08280311005545475,1
0.11478661926928568,0.13501999171625334,0.426150438910308,0.22034801200660356,0.06993458312321654,0.08234567332134293,1
0.08625070240600781,0.022689049992382557,0.43027726598665406,0.1401803074205033,0.1333449380237937,0.08286917755395255,1
0.10227362484184224,0.11108297500128653,0.4108143407043997,0.22487822900183854,0.14107123119163967,0.08167463753200793,1
0.08502001137975977,0.0395147274497239,0.3911174526577702,0.19638662265532933,0.12693335436864972,0.09179575589865864,1
0.09611626173733574,0.12775634078805456,0.4018746579129562,0.1355688948598495,0.07809863914801704,0.08859384852630103,1
0.07759333026129371,0.18292862800808013,0.4268348339928768,0.10899756219227122,0.12661313712816627,0.09545230362711808,1
0.06011298523336546,0.19363589477446277,0.42115030334490977,0.10557148504488806,0.08130069163878212,0.09380646171997765,0
0.08087411091313414,0.12368818032071262,0.41224898499798124,0.18644043125213944,0.10240506243939879,0.09809307805225304,0
0.11506990614869678,0.07882759545753247,0.3816511541559308,0.16196431477680945,0.117972937775366,0.09859614801643068,0
0.09302534399334757,0.08960771648564748,0.3984840771798872,0.1905289160373957,0.13209715694962332,0.08385300031892076,1
0.08515049563045782,0.14892717536087477,0.40139118733805684,0.17147395367540674,0.11537161729973514,0.09569149554553547,0
0.07071405443898635,0.08001422308707162,0.408178511265369,0.24955432020084126,0.11547376976305015,0.09816930175095764,0
0.09189390931120288,0.17350637180145567,0.4327455353131779,0.21706545474414032,0.1415316713543749,0.09117775739748372,1
0.06083344760986296,0.06638170704252651,0.4155900383745823,0.12038806668749963,0.12447261351004034,0.08042063050328607,1
0.0953640759186267,0.07719459681492977,0.42983137415385975,0.22741505510564736,0.06332173649420623,0.08371770639434557,1
0.1116453400731562,0.11063646197312439,0.4042082984846168,0.22370379056047235,0.12794627589997853,0.08052288958105176,1
0.10462180621601294,0.11382245109725216,0.42214427498718016,0.12647316045145965,0.08660216048403543,0.09815806517636055,0
0.11851499864575762,0.09439922010780487,0.43159114573549173,0.2057248931906569,0.10713241510782612,0.0805862777916333,0
0.07142736113364875,0.05088931060278626,0.4117389901526183,0.22618100724067158,0.06927487444177159,0.09243305657787458,1
0.07718711609890437,0.19695460196832154,0.3640488007325679,0.13557905480874208,0.06445874672847467,0.09071650767101941,1
0.08056620522511221,0.08173670011780852,0.3747618772734235,0.18722931238633395,0.09778662035065289,0.09937880915358607,0
0.07700214260666186,0.09037543046829583,0.3967358815046884,0.1763414597907062,0.10360014121203583,0.08470671287959564,0
0.0918704083388732,0.15124385924001854,0.40540020566406565,0.2306638753600416,0.11298128768057594,0.08107050068200877,0
0.11169109056595497,0.19819546346686426,0.4356184744384711,0.147345876040142,0.06874104104447806,0.08238790068339538,1
0.09289391375154119,0.06096540468398573,0.4387374939182046,0.23627654338763376,0.14954880606089954,0.08245807618995507,1
0.06128551438967871,0.15691205530324234,0.3777009083547968,0.15752105645514297,0.1408170597416254,0.08118820435814643,1
0.09851292069076886,0.12812456869248146,0.4298322640537682,0.12183111438520394,0.09309121087782865,0.08423444483033166,0
0.11670840289463834,0.10470306124010889,0.3650204183682377,0.15059780655100052,0.09704496191769937,0.08731302496477618,0
0.09994088572761485,0.1556751984789224,0.40616597983845654,0.13559787590179725,0.14870532867269712,0.09928696675079297,1
0.10920308441247342,0.12636088376955748,0.38586592913626216,0.10141925776927575,0.1033675936071384,0.0939513703401647,0
0.06554967336330225,0.14133828520460107,0.4018759638835719,0.10165688237275243,0.08335526439881444,0.09949893716388424,0
0.09164411062147099,0.16261340132198218,0.4189805398484655,0.16505252252210617,0.10745639334683472,0.08611248403778882,0
0.08645237326596658,0.08195839077776138,0.37163899073038315,0.19340676188592487,0.12755775276085468,0.08370754823724443,1
0.08441577870182061,0.15337303976681457,0.4026331638433311,0.10369452840581228,0.09220572839347986,0.08640657232461715,0
0.11185534204179204,0.1205829554971721,0.3656728293021481,0.17826779833779816,0.09652589135894729,0.08953346357207959,0
0.09129250566959185,0.13954361726649847,0.3744450002978939,0.20679549046257437,0.07665750924866946,0.08046550007859478,1
0.06326543724612427,0.10811681213287427,0.38128950500145115,0.20602268687892,0.08684543503355135,0.09171526383607016,0
0.10153770212752483,0.02168532473989343,0.4022278665802396,0.21291921057329938,0.15242263303180487,0.08648011009494963,1
0.09295600113309142,0.19803428046385324,0.38281551174366435,0.159440743249925,0.07806819131911384,0.08304021034845906,1
0.07063340864932849,0.10242084106037158,0.4377502289850995,0.16760112614584374,0.10913124577206781,0.09022889958138505,0
0.11848709838132435,0.19411061530744472,0.36994569507787756,0.16592111614747923,0.08450288274372489,0.09796815810189932,0
0.1071058736489078,0.08630781692026258,0.39499441844259486,0.24020354223813242,0.0955192666296753,0.08845551060812563,0
0.11023789735445744,0.04916354210646666,0.3646518940724006,0.17711718637844326,0.08296158865129825,0.09608644263627115,0
0.08642968587074888,0.03566005129159849,0.4337263936096812,0.1936746393046875,0.09901133697411832,0.08636461015977985,0
0.10107158063497262,0.15924666326916578,0.3998876773406228,0.1766677587453496,0.09011151630399641,0.08970583078531116,0
0.11834927951443913,0.05309146900782612,0.40050360931364143,0.17781982099279836,0.14577018789817453,0.08117550285697908,1
0.06709022035522033,0.17041651239794986,0.43050990777845355,0.12631243010813667,0.1315421165086103,0.08566947931968216,1
0.08365877972144423,0.1548010700654062,0.4210810552371607,0.13131607768263123,0.14526737543921592,0.08802950959675941,1
0.08614096226573642,0.10609540646059756,0.39668903338530304,0.11061920377419804,0.14567431380979706,0.08986862551337632,1
0.11705510602318966,0.11425346167390697,0.3874093337722247,0.23424707008024598,0.11315285337168318,0.0805226538514668,0
0.11974363357891693,0.19478982146023718,0.37117728798822475,0.14549547315661523,0.11096235867601875,0.09851678907227768,0
0.07418080370136834,0.19941721295305645,0.4248168641784186,0.22402227310529366,0.07748696836724381,0.08249158608418884,1
0.08688957272222263,0.08892285619814852,0.4028428542161363,0.17082915323377318,0.10382126561731649,0.09354847517191842,0
0.10222741680637126,0.09552340452432577,0.42157304411010826,0.24220759468588116,0.10254420386308746,0.08646357701372233,0
0.06434750641111006,0.13235608366125012,0.4239778812977004,0.19888374571181136,0.08750840081698572,0.08535810857359553,0
0.07236340469612476,0.018001441886265034,0.38168309995950805,0.14064704241690654,0.0797652021340711,0.08011416812229218,1
0.0722342523417717,0.1618539265995946,0.41995884619552437,0.14417002305307808,0.15300014941759968,0.09461312930674803,1
0.08655971956715912,0.15182681507875181,0.38996164695696106,0.1746869402700146,0.1405223701177042,0.08013529229492673,1
0.07128723845543233,0.020468560263463026,0.393507985492576,0.10278741666538942,0.14215664130409775,0.08989036901598035,1
0.06190565908000611,0.1725849729258361,0.42119187346744663,0.1560203659631873,0.14848701121159735,0.0893830114536424,1
0.06420049876948528,0.02706616732062266,0.37521747458977217,0.11651101873269049,0.07115298418243518,0.08161928153114967,1
0.09933103109576616,0.14125803008455176,0.41253952406738814,0.19576554185450698,0.06663898202560377,0.08254108034458073,1
0.06919619105284697,0.031356443522075964,0.40526815895096174,0.10891568817475612,0.1516010168252063,0.09314087760584475,1
0.11146234278702376,0.15789380991903537,0.4226643154503097,0.2382864120123099,0.12033592049568476,0.09842491225506558,1
0.10445655277433546,0.1473326340225863,0.39574951999331165,0.14927564262550122,0.1238421017562349,0.09073096827153997,1
0.11274910266573084,0.18725945669156005,0.4150823903758474,0.19066965938942335,0.08341296846101427,0.0939706056985425,0
0.10142761973617637,0.024789879197236346,0.4300471812549405,0.17965420413934288,0.14045535648102922,0.08191273259106588,1
0.11387155819534242,0.11166801704782119,0.4128170385656368,0.10632372906204876,0.06366605844137405,0.09376411759240422,1
0.08273763346007532,0.10620990428640449,0.4228865072514787,0.1054718415368639,0.12866340420909825,0.0830723738423984,1
0.10184108697883093,0.10769449777759825,0.438054486466511,0.15421718040502624,0.1375764308724035,0.09416759535216297,1
0.09471936604885042,0.057256128083749885,0.4309134209674793,0.20131865941091842,0.14060429145946235,0.09421512956384412,1
0.10994720391073773,0.1483168143477824,0.36303670304643715,0.10531228783745056,0.0941823480888417,0.09602347574359496,0
0.0799554113101886,0.05967857920235445,0.3601453070866605,0.13359272060966687,0.09178639753798075,0.09544445196721536,0
0.06543114648026789,0.13875835824256855,0.37928864454441774,0.1624096551230004,0.12766834427994048,0.08007457382169592,1
0.07266337049007084,0.019802500230801597,0.3827773107540457,0.22368665120426864,0.10523832361619596,0.09068248860206363,0
0.07787804058429207,0.11428914037708245,0.3679351268267311,0.10145799674895833,0.10760345201609159,0.0869789085963029,0
0.11390902968178387,0.10352859100995163,0.40419532411533887,0.23712297576486355,0.13917168632756372,0.09496397261228424,1
0.11942704167081433,0.09814150161921824,0.3762699223396155,0.18557959973284788,0.07009449066786243,0.09656279260415558,1
0.11723658759584824,0.17138285798325198,0.42763109526605303,0.1911009963434669,0.13713017850364806,0.08471360145315088,1
0.09556256461552126,0.012496641316188918,0.40501044405444203,0.17382627221839658,0.07468002161063528,0.09667015866916623,1
0.10271410961553745,0.017369385040050592,0.3967025860867838,0.15645262834229648,0.10737714005524404,0.0829923331646082,0
0.10239612456608196,0.015961490184435382,0.3920190708937926,0.21542946578325478,0.06452872511894334,0.08088482786092605,1
0.10255951084240059,0.19678890805111365,0.417821352833187,0.14829288423642353,0.08839150378965661,0.09223273039548488,0
0.08704783685250932,0.043613639421833175,0.4395173452296166,0.22347587138624025,0.08665148105215033,0.09461611051200668,0
0.0679803716564634,0.10380974811615702,0.4307299492582278,0.11011035459688547,0.09902525339968979,0.09114557190630576,0
0.09420271383320229,0.11291150976304291,0.3992335245402759,0.1856054680265992,0.12413712878942172,0.09884520222726964,1
0.0647162698198297,0.03726556389177939,0.387968973364912,0.20679081806909191,0.11756463899418634,0.0823974606476967,0
0.06957601158302976,0.07691405246291089,0.4350378098342184,0.2060448997437503,0.15760090443845953,0.09456522275451044,1
0.10513889483264549,0.16866805566975915,0.41317649610360185,0.20355064725049388,0.10329949784430649,0.09109865574951663,0
0.10516922819585567,0.060770530705343814,0.3970479809017342,0.15365260935139968,0.09520693188825397,0.08058238602403663,0
0.06413035138935134,0.07767772332031189,0.39036245768443684,0.1302005785640189,0.07331610298105296,0.09550951658342592,1
0.08856844203362335,0.03421230096687128,0.4096680494726752,0.22007740505737025,0.07676608962593998,0.09700369761607665,1
0.10193425134362091,0.09469121314993587,0.39497505414428397,0.24437341868099097,0.13221837299470612,0.08141886466713906,1
0.06849523411140747,0.027562694074376823,0.394944005311346,0.22277446313437865,0.14398713948245556,0.09593164398497625,1
0.08043674330979418,0.07779077388817822,0.3721138864706143,0.1863984423142287,0.0863634307708125,0.09828835623358667,0
0.0665330810269595,0.19132843885855091,0.3808113116760853,0.23572143535960116,0.13924905265960408,0.0865299559627376,1
0.060639407245450874,0.16204863549158727,0.43372563832991057,0.1888233140773503,0.07448558432655625,0.09671113098923913,1
0.06917978561089905,0.06913685397109444,0.39712403354247405,0.18361418821612308,0.14394775096838386,0.08862340249931078,1
0.08659673272736733,0.026177458067389855,0.37277322020972115,0.18074016763331874,0.14309761862530584,0.09421823528591476,1
0.10602105515347932,0.0916622337634217,0.42210241076549837,0.22525018876517844,0.14342526261749616,0.09116107523603675,1
0.07312101507679164,0.10294275291935188,0.3629647520854791,0.1799135722831957,0.12411532708429243,0.09746585340556847,1
0.07769701873811055,0.16277652494065306,0.3713316942403004,0.12512156819066,0.07737308604324757,0.09842754790848823,1
0.08597597581499422,0.01948557405436326,0.389373433057605,0.16060802959937584,0.0916107429941819,0.09876353043103242,0
0.07006823473439014,0.044813915766460946,0.410573844054422,0.12156077523661636,0.14810038475786447,0.08896243381133578,1
0.11944978125596506,0.012561713646794218,0.3857692400417763,0.2018501495327712,0.10266166013770325,0.0818288010230787,0
0.09964403612472476,0.1805444790786794,0.3925490082554898,0.17397137608512897,0.1091379306708449,0.08093905238782323,0
0.11273484382347287,0.037486694120118624,0.37898437326138923,0.12304191900499774,0.07138005610625886,0.08350871854306668,1
0.06645390155000352,0.1126686392491568,0.3733470939998998,0.10016835678578602,0.12163631580830364,0.08246835599148476,1
0.06520465639994168,0.1745713568318324,0.43195354606270037,0.22499719319608197,0.1479943128369995,0.08754463033625652,1
0.08644521794512933,0.15303593275384053,0.43799225641105416,0.18072775850402698,0.11723862830346113,0.0910639477502082,0
0.10297428693892252,0.13676595639889164,0.4045539651873633,0.18675333500894845,0.11103016300127472,0.0952379391414209,0
0.10214008242619735,0.1659274071678225,0.38167559261810025,0.13117817625333483,0.11835644663131348,0.08719119882614944,0
0.09983092146399518,0.027659506641090587,0.436767834472499,0.22940489702284783,0.14836532560608048,0.09562833661948013,1
0.07257551530613786,0.13653038021991848,0.41655524219956236,0.18283970025489615,0.10761391983648935,0.08950459609714348,0
0.0684678865811413,0.11189212433892343,0.39512238140778677,0.2085471042993713,0.12843049091285358,0.09685900416029006,1
0.08852445041108555,0.0223249105616583,0.3665887418706143,0.22763706149709476,0.0814776802073093,0.08660875981986893,0
0.07877110350825124,0.055131919928049805,0.3754726889784637,0.22775245542117997,0.09399401706310831,0.08559461466585931,0
0.07104238561502382,0.15388961715937557,0.36213963114026854,0.24063756773398695,0.15634298228418744,0.09607763468782345,1
0.0782435248652629,0.07294422048241726,0.42643551414186837,0.20544383768612956,0.08414262922493121,0.0903546469485751,0
0.0730152644352442,0.03940437530839519,0.38375044239629424,0.19119644434008853,0.10763675633694458,0.0808764840191987,0
0.09535175168635855,0.11401758916666321,0.4004109128665018,0.17901270330465496,0.08272075626039471,0.0862858784332528,0
0.10862739077268234,0.10719289645163817,0.38913810842896723,0.20660014933322407,0.07377325110754343,0.09207326201025812,1
0.0868108357649866,0.1408728716525451,0.3983881145013842,0.18461399569196338,0.08601559066286649,0.0974478194922774,0
0.08597392414211585,0.02322926579142839,0.43308428993093007,0.17543639514995307,0.1505667300771083,0.08800639898259677,1
0.1162108466983001,0.1339102614386923,0.4338111815488829,0.1587602943653814,0.09109157440570631,0.08549857965497991,0
0.1154801727418929,0.07862974203082883,0.4127449927892475,0.1002750304377649,0.15999411836848842,0.09347056169295843,1
0.098972763358605,0.19839225116076462,0.43054056912761735,0.17321003996707626,0.08908028052687879,0.0979465799481192,0
0.08683076674750789,0.12168482278826076,0.42330461036381595,0.16514059287766153,0.07036935219756117,0.0962240265778308,1
0.11812232461787617,0.06784436193557171,0.4336894487688652,0.1092185921027959,0.08510226108672943,0.08791849765859906,0
0.10664439088015554,0.1824035456131768,0.4058619215692106,0.20573120723245986,0.12684702489496968,0.09410725923072238,1
0.07417981031039914,0.11854255975663547,0.3647431680891618,0.24849332283478903,0.08355121047878543,0.0801412035522076,0
0.11806651754712799,0.1555916701757287,0.3950964104879221,0.12288538773542637,0.133786303890529,0.09094403113406971,1
0.060981098925259984,0.03982362197816834,0.4246373897203088,0.24439610985302318,0.10995473252084029,0.08965604798584327,0
0.06779197699160285,0.11455390051748217,0.363892715034545,0.21184000959073912,0.11512551808068647,0.09161719662376419,0
0.06741555791377997,0.038391879332104056,0.37021992036301793,0.14435160305466238,0.09879923987435399,0.09478410267393614,0
0.09754535245866308,0.12021810256594272,0.3843146884492647,0.17434785925112584,0.14280335066201108,0.08921026370306875,1
0.10564462698582,0.17048808586456157,0.36348217967476554,0.21354632293002523,0.11856281013145906,0.08722436453496495,0
0.07195394529656193,0.16008949684948665,0.3897079637158494,0.10985537967179954,0.15066132311631586,0.09381582619065056,1
0.07334713426147206,0.12262844904371574,0.41650712135359,0.13818164602213723,0.10772445720458515,0.09933121907986708,0
0.07495142409059029,0.18687739751538351,0.3641496400653777,0.12512851074033932,0.12118035528629736,0.08334498444105887,1
0.11954703632160027,0.09312589716616665,0.41280085519583715,0.24129406036212894,0.09233347051328497,0.08363522049309377,0
0.11456239828795944,0.18663730214442809,0.43939804229533524,0.10872276982986946,0.11410760379664056,0.08138641933932898,0
0.0650349021399713,0.06347690502576914,0.38233763762648393,0.14151054690952136,0.13955089608000873,0.09740850520123905,1
0.10956357544872383,0.02142739006281828,0.39903385970583294,0.14575851214884172,0.07904155348044896,0.09997503674959413,1
0.11445060467104161,0.11054365890273934,0.41463053350554324,0.12208098028132067,0.12850234392226562,0.09005671342672232,1
0.08317314170077628,0.1944385707145113,0.4039135884251413,0.22136984310980917,0.11475559578901051,0.09090315252564626,0
0.11979529073681339,0.10814282770448111,0.42816659650823263,0.18677593999972059,0.1103355010808256,0.09858010349440688,0
0.11011678340557576,0.06867387889106427,0.40217558145709137,0.20879549098329309,0.1468612866832364,0.09451007953766123,1
0.08529776428470055,0.044520657639897376,0.4047246954589515,0.11370423346115183,0.08207696587807659,0.09153306599610433,0
0.09167172209059979,0.0667441923306515,0.40336291809227226,0.24933443254948542,0.06101420065197268,0.09913311653322082,1
0.10133140437250546,0.08401505803998498,0.3637218446685452,0.24451994153852596,0.08451928106365911,0.09923387780431357,0
0.08629128666314437,0.05080438586021467,0.37912202109110965,0.10157927839523248,0.10294466225573173,0.09578176329618157,0
0.1153796782247161,0.014531574036495283,0.4204580778096311,0.24861911658143543,0.08451410438931246,0.09301494711146115,0
0.06464671017949365,0.11065924860568378,0.42038407054068755,0.19730769316858288,0.13137225912899203,0.08425289995013148,1
0.07558293304993285,0.05735735968058678,0.4301473979393358,0.22635557801792588,0.15890842692833362,0.09260484615810922,1
0.06315407668266972,0.04940975825764263,0.36188390514546165,0.18480844441822536,0.08146999984181488,0.09362420326064538,0
0.08435100976872953,0.06109464088871855,0.42304402441773065,0.14635657188936166,0.15341885187866477,0.0829752565549124,1
0.11725162013181194,0.11290862048008375,0.38210998445907385,0.11127370209972785,0.07219584276398619,0.08404206504227253,1
0.07658856750755129,0.19678901381995764,0.39807178423329553,0.245209007440759,0.10274035995382577,0.08301665611901117,0
0.07463309559737437,0.15012102971762314,0.39071608443955796,0.13981158168954755,0.1367467162154752,0.09509445036462684,1
0.09711112992738813,0.10061057964429913,0.3672291564755795,0.10928898746665952,0.15137968254760636,0.08464275869317327,1
0.09371500588495102,0.12764277368310592,0.43951558078238967,0.14947945181994965,0.06169040007479668,0.08463017445189983,1
0.11646648808009963,0.023932982264536565,0.386108316090022,0.20481932342599357,0.07700140944105596,0.08198830722255752,1
0.08919872715449073,0.18303472685148667,0.39642730904559814,0.1902569754856549,0.14350222811657676,0.09566335262551637,1
0.11431527577730671,0.1040398677497351,0.41816306808002157,0.16980037959534805,0.12301783723839797,0.0896579618789493,1
0.08379837744587844,0.1367776214453848,0.3976042573872234,0.23983131474778668,0.14301595694112607,0.0875022148361062,1
0.10915933790129086,0.13825946827533603,0.4293995093198638,0.206857652230625,0.0875913333546597,0.0975880180636322,0
0.11352022452538224,0.09330924925383977,0.4344921526254291,0.22912984828707225,0.12265345507742219,0.09224458404779327,1
0.10585881501966886,0.1872284833841313,0.41813752495626544,0.2062980537821184,0.09761972909100197,0.08319518167006411,0
0.09267250914775009,0.19802303435102395,0.37768564249114617,0.1674000422373993,0.117300255075838,0.09917791740048729,0
0.07444168202245073,0.1656553942232227,0.39412191441015104,0.19961656184362736,0.12338379490285166,0.09476174588424173,1
0.06901360602919415,0.07190417341805051,0.4129218785521497,0.10318551309048352,0.15419590847154896,0.09775719460926702,1
0.11024275903203314,0.10521273391527781,0.3906817299607713,0.2028791673280052,0.06563331258941005,0.09701796740634434,1
0.11351867259085185,0.01959650830477276,0.3836837468707831,0.13342114238259112,0.06973732844220996,0.09443089601702269,1
0.1128598803217484,0.15022142743687378,0.41593182503913506,0.24903653624585978,0.11883774468557437,0.08212517639947695,0
0.07762435035527081,0.11545232198060112,0.4252327699722203,0.24757025436323277,0.11087171993155422,0.09978232898791636,0
0.08914084810526368,0.09317809336061887,0.3763545864523878,0.10393626591212729,0.13108626111985755,0.08166744921279163,1
0.09998545515735585,0.054026204474546966,0.4163351301180814,0.17229890667387815,0.1097452565467201,0.09342944379532797,0
0.11030700444594968,0.12481685403301564,0.4209050918468501,0.11184358005857326,0.14377883617854786,0.08316641743631241,1
0.06382925190084299,0.1316461924598498,0.383087477573704,0.1297445941815061,0.08462783694940071,0.08957625272592047,0
0.1064136253089185,0.15564895991084268,0.3835086157340836,0.13515895022697844,0.15496727618595063,0.08952699761465445,1
0.1186947387982217,0.17892966633306526,0.3609803834788164,0.21860622203922653,0.13336202634896188,0.09380401369140687,1
0.08048616818408234,0.05385691429791342,0.3637862885138564,0.13215917916141132,0.1032977287983225,0.09541826707902122,0
0.11144646179558407,0.1501549763543023,0.383044966536473,0.23221531198454284,0.1472257254098605,0.08467357447570023,1
0.08610004821821937,0.15938197645816968,0.4054075126862776,0.10162103686835679,0.1323835743208251,0.09202661536674306,1
0.11668034516865212,0.11462726565689266,0.41115482622691274,0.12489298622692757,0.15489362308819882,0.09026452670854518,1
0.06224985588280912,0.09879981516548916,0.3686214907464209,0.11294608994328703,0.06508342004988117,0.0891166758839057,1
0.1195007882079406,0.0671505397686533,0.36653931335948037,0.16367695974542473,0.1038958326538897,0.09019913319398529,0
0.07361677326909638,0.1374468142600146,0.3716812930604946,0.1071509793472846,0.11129962543783241,0.0866320889891813,0
0.11455735273967929,0.1340874003702312,0.40151997303920056,0.24323808042851447,0.06802980835569476,0.09686354383877721,1
0.08568463010495582,0.14507354771321607,0.36800034502039153,0.20638566485388798,0.14706673570489642,0.08003199709252858,1
0.07410087459905935,0.06305668190491334,0.4194828238191271,0.1500410849235416,0.1322871353244472,0.09855483805177469,1
0.070467026711208,0.06305844810544681,0.3705838933373226,0.1470813310959515,0.06333772377231528,0.09197808093581125,1
0.08567110188444389,0.019650358387151796,0.4234427295858989,0.1598774556259374,0.07671434735482494,0.08673136285647774,1
0.11607553805566169,0.19374720916381352,0.40430776762334786,0.2451254498556269,0.08286108818091056,0.0844834577108624,0
0.11127213046022381,0.16826053566073526,0.42782415465672435,0.13701498651026023,0.11582395458109326,0.08930320533515959,0
0.06884967040030718,0.12057460628986245,0.39425751964811223,0.15346356622643367,0.12733514044004088,0.0830789045165787,1
0.11300989030279604,0.04673965749145868,0.42891865554855,0.2470240073609443,0.1435293370952364,0.08107992922923954,1
0.08069189538032856,0.19243758380519854,0.40312206454872823,0.10733629933701881,0.09676716693281923,0.09105274773322398,0
0.0842247946707057,0.05785461698610221,0.3871237192685387,0.234583902697719,0.06702957227683096,0.09762801735453405,1
0.07116240620355274,0.1838509596266855,0.43979771905648907,0.13253341197454574,0.12611204423762784,0.0876659203454018,1
0.10413078703829676,0.08889237082805759,0.41648245269200523,0.14515512830767857,0.09442814140856934,0.08361201099371053,0
0.09138178478703929,0.17988746983149104,0.36559865470766384,0.13082428026066423,0.11938503165191408,0.08069900404977175,0
0.11195830049550255,0.06577988018701705,0.37883166113773376,0.11956673357962379,0.08400609085396123,0.08428986775318165,0
0.08384849891517072,0.03560998364939283,0.39686748525628907,0.12290525299045184,0.08548872729438577,0.083665039819521,0
0.09920123134714519,0.08432913302281883,0.43416327058676846,0.1911475585553293,0.0801540432407151,0.09747534907182329,0
0.07582080727896706,0.15043082628090376,0.41368506077661255,0.17257300184671887,0.14311427135953658,0.08852117147316056,1
0.10246580373397816,0.11301136548766956,0.4135622579744499,0.1351983657210485,0.10631128496072972,0.09738307600787666,0
0.11389662224146418,0.06768102301653892,0.4264202529569838,0.16133053763830343,0.08140047538911523,0.08757261041357134,0
0.06954153363356881,0.13688479249441726,0.39445606431824365,0.18515935531987482,0.12811106280216472,0.0987910729606337,1
0.11876001472869094,0.12421653694428769,0.3604133644435361,0.12846794982701193,0.0602777975255789,0.0880256855306856,1
0.06301704181028166,0.04667349008253638,0.3997049947807783,0.23032003828382303,0.06210922047307034,0.08709855632815901,1
0.114509409052034,0.13381670473086546,0.370009080827668,0.1460610682005556,0.08388247786477723,0.08999158412247395,0
0.07455996916715688,0.18028204017104593,0.39385683869708854,0.1500710122961721,0.12514773881365232,0.09243521860796089,1
0.07242365480934643,0.09476653972291187,0.3730536643562034,0.1222340340458151,0.10992187233538975,0.08973868480497835,0
0.08379222612983359,0.1970369847701179,0.3938514982836096,0.20452561510021303,0.09697802609699288,0.09484836417576495,0
0.09952061388275404,0.11066913050406475,0.41489999168572045,0.15262962756799572,0.09594822990205254,0.09962716294667079,0
0.06572593421763348,0.09913707218081359,0.38357522275905254,0.1896235876434032,0.07852493969007217,0.08900061211496463,1
0.0932910985075727,0.11854380534421526,0.39499156309702266,0.2128850239531414,0.15958961282902404,0.09141879236269293,1
0.10684770927823689,0.034554644705585946,0.42871591869461523,0.14494625175326606,0.06848560876979679,0.08827912642890245,1
0.09984686943742355,0.1637590141203195,0.36795888645166774,0.10323874869583877,0.09207994040072931,0.09018928847613689,0
0.06981798730799263,0.1445969090020998,0.4196662212571294,0.18460127320810532,0.15339292471050045,0.0893109946293822,1
0.11486924111201503,0.03325753561681631,0.408129702288332,0.2400290207801716,0.1436647150848155,0.08349500754493457,1
0.09905219851767086,0.11939332916308622,0.3671517123238357,0.10860441204053205,0.1430723417866493,0.080414149991109,1
0.07076379338914704,0.09906892335061764,0.39171018957398585,0.21886943822457858,0.11426040236270005,0.095384336590489,0
0.0812668174311809,0.059499680232798266,0.3981880894941344,0.17955223729223296,0.11777996158540824,0.09060277339440045,0
0.10769903764821141,0.06875752809729377,0.3648010768695659,0.17776800206665117,0.07789944807250697,0.0917212386513005,1
0.0748086850534295,0.11707517255978986,0.4132468888280087,0.10452223994664055,0.13346953749023216,0.09653017037713882,1
0.07573447984056868,0.05452887700146168,0.41086668086994543,0.20204782118823528,0.09615950432119291,0.08859073760779276,0
0.06585824377290082,0.04767681437023684,0.4281078215956974,0.24116126433424998,0.1468952571908606,0.08218716903295481,1
0.07491340255441999,0.12395284194486887,0.4065020203829712,0.18316089571181782,0.07360039939436036,0.09567089076854622,1
0.06683497996074272,0.1433234230713515,0.4110283747170204,0.13236569207377974,0.10812378684743282,0.0881895763174813,0
0.07528195978790471,0.018972518677014136,0.3862564850748876,0.23755017650046217,0.13966891275130225,0.08802296660560399,1
0.06264910510382653,0.07550250660592495,0.3958732911626931,0.1213364346689533,0.13558851927512236,0.09120308897568896,1
0.10982361929260753,0.033827468485005015,0.3609255122353387,0.2280785925213514,0.12703335506236646,0.08133348287411567,1
0.11267205167481881,0.04402558449912437,0.4233581179744582,0.11892930309270382,0.06835988518728384,0.08146314978884762,1
0.10260370316341877,0.03724502789684121,0.42967413092461654,0.24117546263538203,0.10060158916513179,0.08840728927722377,0
0.07753472313736255,0.1952154219659951,0.4342116933260629,0.14674436281191938,0.08967001245567399,0.09114540919775438,0
0.11406423650559414,0.14635198499253324,0.3807085226183396,0.1617719607377735,0.14161489501163105,0.09106136923340169,1
0.09932503918562496,0.037848538625254766,0.3921378823508652,0.223847382693536,0.10336403104652443,0.08673917670790646,0
0.07846592876024269,0.1404122846314196,0.37717012788536586,0.18422941582119468,0.09193530810981052,0.08029862575584701,0
0.10850677796319233,0.057370794955153584,0.43284245095029206,0.11236726111232723,0.0831456404576453,0.08832453481525053,0
0.06537458676063258,0.08010438249675465,0.4244335814240008,0.21735184327131468,0.08879743454981437,0.09649987104889925,0
0.08521431281779085,0.013408159474537027,0.42440348468449896,0.20078997450260133,0.13125518525714247,0.08969979332658075,1
0.07161467308654268,0.1250775638280491,0.38434525698907757,0.1282085137280989,0.10713229212740188,0.08721799387494304,0
0.10893928654280688,0.08192236468550311,0.3968401906876853,0.23227848901295842,0.10834767593977201,0.08673775962179425,0
0.06041847959357281,0.1032073558074026,0.41813093498211285,0.1724109622376106,0.12102954601985319,0.08918170423254554,1
0.0781768129354192,0.06696206194553198,0.3733258167249643,0.22916094201951584,0.13814114659485077,0.09403288951165026,1
0.06363322852035348,0.06343130377592945,0.36941236551232476,0.16193016471653804,0.06780433681674158,0.08697563070922486,1
0.11038096425381061,0.07393947576192708,0.3999643437811804,0.2379683697323723,0.09061189840679561,0.09504723080336883,0
0.10892644554357743,0.026901133025320004,0.4386181163214711,0.1252019349724152,0.0657593651412633,0.08157256518415523,1
0.11385199084008649,0.06398511551598847,0.41722800945767163,0.21004739525396193,0.14810968481870987,0.08858674599767244,1
0.06519489484958868,0.12178175757951083,0.3691151523094022,0.1759092198700535,0.13566630123981793,0.09228324551287521,1
0.08911697524108739,0.05485838639388507,0.42273851192058676,0.1355402147769139,0.09801142660535195,0.08708041249266077,0
0.11818100422170752,0.10809030853609326,0.38186768033729035,0.22169428920068185,0.1272091450734435,0.09569222864763953,1
0.11209325488006652,0.10116814641883272,0.3607836766127073,0.2174072103369192,0.0889299643139021,0.08858281965104176,0
0.08977690641530964,0.08852139299773897,0.36758379391135615,0.11916090494733106,0.0710457165072704,0.09635221626946947,1
0.1002750273749593,0.02859970274738671,0.41518029471627066,0.1225640128656836,0.08064575177488811,0.08921782056499292,0
0.08624741232548766,0.05645430257749595,0.3857152795468518,0.1493995764845692,0.12090122735377451,0.08399934910626011,1
0.11815893938279667,0.1517399561959241,0.3785460382663419,0.10637648721578548,0.08752288029694258,0.09295414543618331,0
0.086840158528451,0.06711625074774318,0.40555002645357885,0.14227974089152273,0.1327551958104773,0.09683033430518331,1
0.10855272613475782,0.15722862683112415,0.4267103415942034,0.20584615122634453,0.1408826281341264,0.09533806057043444,1
0.07327533859599736,0.061151448630019686,0.3856909812461002,0.19663815698168927,0.13291834773287398,0.09036114701896514,1
0.07808464019207181,0.11838075998300941,0.39357502517209786,0.16988249117915982,0.08742352309409854,0.0948465981832031,0
0.11778790032945882,0.019485277594666985,0.4187946520862028,0.2173466619123198,0.06120138458115726,0.08309317257937693,1
0.10576254188284612,0.05824808431828345,0.4225058257483594,0.14843579049874608,0.14588492417913307,0.09522203276851972,1
0.11151231978673458,0.13617918863588,0.41870820706239803,0.24710426563143797,0.11885279066065196,0.09392412493028221,0
0.10664111109895665,0.194586851408432,0.4360271143000913,0.20774185398536082,0.0850726083876158,0.09007083921044812,0
0.08901220222084069,0.17694366439975495,0.3973528387696807,0.2256432323629759,0.06647847555619905,0.0984624363992478,1
0.061476398269782476,0.06525393127827235,0.3610578305275004,0.18142438968624314,0.12626152662332202,0.08922469795431898,1
0.08476172740317506,0.034395625589137044,0.4312624428470067,0.22297833171956966,0.12963587564824852,0.08529551829766333,1
0.09419525014460794,0.016739914890317325,0.40625257569431006,0.21335228340813042,0.09215854213408392,0.09951567118639287,0
0.06285257270638704,0.1673606082172704,0.39488750006247136,0.20341783139442604,0.13445313227530298,0.09287045007813918,1
0.08584909972726965,0.06556298176437425,0.3868297539389239,0.11365216045513139,0.15802797294665016,0.09585940776461883,1
0.11303201013057781,0.03259269264850438,0.3945608378722009,0.14349498679362874,0.08113694390695542,0.08701522934277212,0
0.08742612188212005,0.15089469927612303,0.40966450235710683,0.1732469367468511,0.12543260744423107,0.08554015814829412,1
0.06879123539541987,0.07984615367322193,0.41199569012816434,0.22772031504458998,0.1325887051489616,0.08905080151574593,1
0.08831513715893069,0.11206095628649762,0.43784887585298227,0.22899872001027158,0.14448081841776197,0.09744728352942883,1
0.10540442698364479,0.13692957172033715,0.4109875118414188,0.24278533463960877,0.1164343592824088,0.09620783618081227,0
0.06484938022309004,0.06669404897524091,0.3913696516120908,0.1470686971836099,0.1272818412472019,0.09209418461658926,1
0.0979868990695766,0.12691850471472726,0.3734901280780067,0.23618494707832965,0.070365057096794,0.09652192626562091,1
0.10250452465943513,0.17256196421224665,0.3715756734096157,0.12769970659947386,0.13908030642419236,0.09214486383243788,1
0.07255202078366295,0.140245307964805,0.42582426721570715,0.2283979248161453,0.06946597996413871,0.09828809120636257,1
0.06290761410520034,0.04529489477984561,0.37146830152025523,0.19500624299628705,0.06250986120050313,0.09893033262084944,1
0.10615340664186813,0.15046013671094172,0.4382939593306091,0.21910870137970145,0.07370659698676658,0.08491919447084066,1
0.07090931784502653,0.021742083191219876,0.3752320265062531,0.19088535399834894,0.13470590527506182,0.09929268039536909,1
0.0618788573715719,0.18065739474018333,0.37140026875678667,0.16523477658112998,0.06174225189539637,0.08100731040838938,1
0.07676335772987516,0.11119212399295869,0.42706104015923696,0.1880415901566887,0.12548098712366962,0.08723741876978153,1
0.11789902865700308,0.19583914203760364,0.37089620376388427,0.1003334346643417,0.09903668874381338,0.08353785398645933,0
0.10317210084750698,0.17024907148748566,0.4341043859355777,0.1077687782709646,0.06475800319185776,0.08426932545300198,1
0.09366021025075182,0.11511703950946463,0.4310704914958206,0.20110542965684147,0.09220244561587082,0.09053568030183805,0
0.06141939898605503,0.13979609034455906,0.36079827337023074,0.1473106226900826,0.07560657875599347,0.0846795745389502,1
0.11399863313854806,0.1586329628948039,0.41109783232479563,0.16117765828730513,0.06176643771380882,0.08500435173255776,1
0.0919011239829013,0.13520722791757292,0.4198841829087163,0.2399028363779918,0.09444924304102512,0.09565083735871498,0
0.07189052958915267,0.013243834334068859,0.41656598746276885,0.15013631440827188,0.08653230742769477,0.08032863095206462,0
0.06840805248011748,0.1438586812391934,0.42242729680711905,0.2264470670169261,0.14176194804862252,0.0956146159728114,1
0.11218488120519367,0.1651939633429329,0.37621379659807913,0.17936001241162342,0.15022525986973756,0.09077664396405415,1
0.07132828708761701,0.025441537372894972,0.4079658621955462,0.14466599264583843,0.1263805801081066,0.08657143259000556,1
0.11073226862027238,0.07406905544833584,0.3634729689339147,0.24524685236188148,0.09840752955661072,0.09886456644160542,0
0.06483903566498521,0.041417615713817205,0.43931198732975674,0.142863605918378,0.1528103386220912,0.08578109583068441,1
0.06402080575926504,0.16928966349559949,0.37134278785157715,0.19137565637358178,0.15084753117044714,0.0813012773886971,1
0.09587440367144373,0.058796202595551045,0.41179681607782415,0.23335425836564536,0.1364537806205478,0.09219263822189734,1
0.08221610566342663,0.06949366148357747,0.40135268085700326,0.222966828873561,0.061402853664995705,0.09000788164235231,1
0.11308568788558546,0.1619156239897173,0.3732080987537968,0.10163144757557975,0.12398509656352226,0.08113945839510317,1
0.11225088947274475,0.05998089053535889,0.3925707757406345,0.19415688614825227,0.08933550889386394,0.09510542383600623,0
0.09333480472613781,0.04870534061731438,0.36955742817493453,0.1720530264738892,0.09707117736644841,0.09780058145563499,0
0.10186686102290862,0.07680130036467821,0.37568773686073065,0.16957735229704968,0.1351659133684493,0.08870792053960919,1
0.09630774906038593,0.057291415631183965,0.40833088048566696,0.21847897695313734,0.1088181208859096,0.08832702745172567,0
0.10507842305168211,0.07693115424862183,0.4072909599404194,0.1389084998921707,0.11086991131737084,0.09713175634023226,0
0.08987702852283798,0.09790846624652164,0.38725500652564804,0.2243921854441111,0.06765920684376228,0.0986052985261121,1
0.10363455399842142,0.051243078507267906,0.3686577011116413,0.11600648498868603,0.13322141371777452,0.09177012039969584,1
0.08939898893906209,0.04047190652211077,0.3793411244795508,0.20915307030555477,0.10416516793062494,0.0831872484712742,0
0.06332048076898197,0.06854455125264215,0.4392189042252499,0.13920699181443405,0.1029026620342414,0.08520050300410409,0
0.10298814108591955,0.08990433449311952,0.36681729044775535,0.2466334820947966,0.07307411569977007,0.09687531944026087,1
0.10187999456801272,0.18682761056704766,0.3742672945319112,0.12097422367753678,0.13653719461542507,0.09884470833221376,1
0.0674934778544483,0.18587285733765666,0.4027906682061576,0.21172813883324076,0.08380949266546808,0.09565918182853435,0
0.08558686844386072,0.09373387871156535,0.4283850579205273,0.14474309617195713,0.13109121209871752,0.09984968366266972,1
0.11788870559525964,0.14406562677549978,0.42910201028511447,0.11135237067118206,0.12307611574152857,0.0868196981959591,1
0.11050443709064348,0.09746918386892177,0.4121125596704016,0.10628715553245068,0.10405410539872037,0.08012151010265259,0
0.09690731304524197,0.08734256905030148,0.3773480572404118,0.22234009059380222,0.13421877197133186,0.09038752733042085,1
0.10244351364871548,0.08752248045263569,0.42378986402633495,0.1189321890481357,0.06286420909504185,0.09681549144736476,1
0.0684856452817956,0.0959725941191771,0.3739650448948765,0.17128440434566472,0.06862287496650557,0.09423940205981907,1
0.09552558158231701,0.07207688980243705,0.4046132430640833,0.2472880476931543,0.11304115161090009,0.08656094270944366,0
0.0975155459783316,0.1773131947092448,0.39873882609031897,0.10878601065785645,0.11040525253692354,0.09635166024795666,0
0.0879909373610942,0.16736784260393167,0.36417090135123914,0.24604973601361232,0.10996997175300584,0.08986377960491293,0
0.09185676924192022,0.09530173213449727,0.4354444765528117,0.11945174225045078,0.07514900508488385,0.0988432641346885,1
0.07683099326390207,0.10815984862319226,0.37870425102348537,0.1363045955055381,0.07747904641129286,0.0903471028911077,1
0.10014337872409498,0.09079638651387216,0.3971040731423405,0.19148190228377154,0.09174005311778428,0.08158002337791145,0
0.0758564739981314,0.10861912745417351,0.42836739022878934,0.1613172310493948,0.08842402607475441,0.09717314711041056,0
0.08794125880107347,0.09844419962441747,0.42470101173904334,0.16611378699151377,0.14507346384187292,0.08380891391493582,1
0.10594061497404345,0.07898804802464215,0.4329695104522843,0.23175098551682205,0.09573804334663105,0.09757487849619126,0
0.09989201838128953,0.19520847918684378,0.39273915984107155,0.12247071114873075,0.1471005737131298,0.08988326188835263,1
0.06097763038519577,0.17485182892990508,0.43134627902805595,0.16120052196030762,0.1344597252285954,0.0932054369379459,1
0.11538164248780644,0.07112845506263024,0.36411490835472055,0.206663306899517,0.07337848487018359,0.08762824206635537,1
0.10891434377593542,0.05259241765411844,0.43677920611182347,0.189205704482803,0.06584757838853196,0.09762604463763974,1
0.10303705172624958,0.14314376522024463,0.43127263611261674,0.23147196632904624,0.15469757701466208,0.0855494451882326,1
0.09593724843602433,0.1453865763208441,0.410185149591929,0.18367026001699785,0.11732592285237005,0.09602435706080807,0
0.10463295186623515,0.160415875220022,0.4106050091462854,0.13164340379605277,0.10843589209559919,0.09666436631530481,0
0.07346587025714833,0.0672381565159379,0.4262243483679077,0.10255375320560856,0.1539187081754274,0.08677473064615979,1
0.09057929274692988,0.0302164495644802,0.3944905601533316,0.23924382082936438,0.09433896733805082,0.09229244367916423,0
0.11710941971560646,0.0481277991938803,0.3912182876249004,0.20164416901462223,0.15316117609156177,0.08589254624067331,1
0.08146868897066857,0.11452387923975382,0.438506195192349,0.16916592198358904,0.12750515696858178,0.0823828124518117,1
0.10589240624920478,0.055398136817216545,0.43551714369941763,0.1886983215645905,0.13300577178920425,0.09004650581286844,1
0.1100226404648627,0.1967980131655974,0.4061471432183812,0.18033416237515865,0.1365542884559544,0.08567162957425128,1
0.09169636874784906,0.12883420983080657,0.3924476154192362,0.12871443452770287,0.14838206917690097,0.08835444451648897,1
0.10958451243582953,0.1268065193135387,0.384997414299736,0.19754867019390954,0.08507358607360217,0.09863584879264223,0
0.08218189317871342,0.029627977267513584,0.42889554172457134,0.22464494809322708,0.11012954498930863,0.09731551791815699,0
0.06364003583807516,0.1484452217590752,0.4309288872949677,0.17389659916686606,0.10998919190456818,0.08237082261571871,0
0.11489160978818924,0.020244565996179614,0.3682181228189701,0.1551609916477881,0.11490946211953798,0.09467256659490599,0
0.08925958059618756,0.09001487000846457,0.36571200796411035,0.1382587771132702,0.061016988692330874,0.0977306361660886,1
0.08484941335592182,0.17409277592932762,0.41080426187107155,0.11041850227415921,0.08109625590146938,0.087361548895041,0
0.10370231284678526,0.025323014751197883,0.4175570033653534,0.224560023654662,0.08028545186629157,0.09278046871018508,0
0.11521660923518891,0.10956296875688708,0.4278531203794921,0.10296047410351733,0.07704527681684799,0.09503907132426159,1
0.06301809995972661,0.08719474380860096,0.37472350642845853,0.14276403975536142,0.15954138033681475,0.09069624871707713,1
0.08885884255554177,0.09180447645714628,0.43581494616048355,0.16131032926046812,0.11398297854874434,0.09643708710992799,0
0.10291276854040812,0.013484526996259573,0.42098579282047954,0.17700878491586108,0.13014996498809367,0.09686043719673348,1
0.08513615416032087,0.04206405700410992,0.3826840055488605,0.13057159162075133,0.15192004556612013,0.08512341823395632,1
0.11660863031862476,0.08175306546203973,0.42431344615526756,0.11859663064771188,0.12651692781306378,0.08124019168902911,1
0.06793828258093941,0.19606173058963416,0.3898020803525023,0.16332829000183935,0.07798016607095738,0.09089900743760965,1
0.11940829743822798,0.019115326502487873,0.37511140738279736,0.24410810401881142,0.06648708159704148,0.0923141141600748,1
0.0942736222147682,0.15471408645862117,0.3690345849412606,0.22134044374574,0.06557899868022726,0.08001323361823379,1
0.0840485210510457,0.08095010472520026,0.4053476957131022,0.17268922174222917,0.09397921105901536,0.09908803125599201,0
0.09027348911227151,0.17318192827619505,0.420383087695424,0.20764523389587958,0.07601014790683631,0.09552551584638022,1
0.10130035245893822,0.05282836860186316,0.37221768773133146,0.20386468436299313,0.1355588689520863,0.09906185489161722,1
0.06151503842593161,0.15430410037982295,0.38189138313460574,0.11323905060089583,0.15073733530356687,0.09085310840024226,1
0.10394661262486857,0.19262974326015525,0.36920383320875705,0.22436987593295632,0.09014190382990908,0.08537709658104259,0
0.10306289619557164,0.13978849110782557,0.37494972873979754,0.1768634900792424,0.1251949798092935,0.09399978110627387,1
0.10102942362320085,0.09700690511272783,0.39937286796131827,0.24302128937564071,0.10234439881402796,0.09283930969250162,0
0.11585459873019133,0.15560080131495843,0.3773782126580523,0.1167519937125823,0.08358252540722348,0.08587622427054813,0
0.07933358844541276,0.11325904284388573,0.39453635434619566,0.1188527645845519,0.08301985576414436,0.08161552967732404,0
0.08014051688177876,0.19820702327150128,0.3774152963907501,0.1381761234200968,0.08972919240216767,0.09649053896949364,0
0.07784393702280468,0.07824786385184264,0.3717413440145759,0.209000181032873,0.12121271567625544,0.09939010864818841,1
0.11957161923063055,0.19998370123610407,0.4287067715859177,0.22298742999758325,0.0784013502518198,0.0801067853387501,1
0.10141334522487488,0.013060208711302045,0.40795361303580463,0.24849591079248715,0.13374393423182687,0.08484691679120282,1
0.09510265419775263,0.15031828873006273,0.4105728716319235,0.24708335724254318,0.12299828076594718,0.09917849126354442,1
0.08087521076733178,0.07497533407913037,0.36617761361864515,0.2383987132235688,0.0992541599665694,0.08085738123174963,0
0.1055593870155915,0.17978463665269384,0.43017396360874105,0.19941813721239737,0.12772291299266408,0.08098216735601882,1
0.06008477052562995,0.06697148744996169,0.3827063914388493,0.17370349174701216,0.06545479768793856,0.09731581696057202,1
0.11796700342973691,0.13195698698041075,0.41586975465759435,0.14992139482176525,0.14615670569539077,0.08714133957191592,1
0.11697729931144486,0.0893732431807857,0.4358858879642675,0.21591840959756714,0.15381966666652236,0.08608722520303767,1
0.10832786544031209,0.186790692775584,0.4098762284623962,0.24572370437562913,0.06472484305811796,0.08695719084560216,1
0.09527068046691436,0.01843278773378754,0.40118780068360793,0.16118394556451,0.11742638342175735,0.09187256913350583,0
0.08421500545033155,0.0924627165233437,0.374706975938921,0.2477820032906231,0.1577693471130081,0.08824158148870867,1
0.09003620686026186,0.15527563490618349,0.4199698926011253,0.1441611863920133,0.08858814594930517,0.08014784971610556,0
0.091134091623738,0.12250324013432075,0.3689328159245576,0.22264872324261123,0.06659117250368357,0.09906413935670563,1
0.09479817948352526,0.03383173679803361,0.4008038852336575,0.18318326129295776,0.10953988203319431,0.09067843676214872,0
0.07746824231081353,0.19746768658601946,0.43805805305516515,0.15551050130324573,0.0950451526579278,0.08843704020626969,0
0.0707933362014827,0.19534644248138583,0.41557923765253324,0.23822562470349842,0.13154276652900476,0.09495574443321439,1
0.10185510303382353,0.024049698979118746,0.4251353255272312,0.1662012782057255,0.07105500947216867,0.08317659540149303,1
0.07961176694252106,0.1932278167073813,0.41318036959436877,0.23828753180738813,0.08164672767733104,0.0800047183607549,0
0.0884371408891016,0.04484305942670702,0.4075398763008276,0.11220045891284222,0.09336529696216601,0.0905167318507777,0
0.06997776255556667,0.031147294684507547,0.4223062068427547,0.24783265458961196,0.13187546452292817,0.09050940294601464,1
0.11556958955093402,0.04300486335112472,0.385140175460123,0.13720850431011666,0.060562762190916594,0.08993143458616093,1
0.06560167790521058,0.14343310838841122,0.3626416496237177,0.21133264031968702,0.11200415830106389,0.08237917455746607,0
0.08434857329126134,0.18059399273351004,0.39111766878057863,0.22822005185396305,0.09426385978679093,0.0823496548639505,0
0.0718011844434433,0.18031598289861062,0.3698278491610241,0.10047229372451386,0.11357650541068612,0.09950820191999848,0
0.0631145641189648,0.08996018418858015,0.4316779967886194,0.2027883588948883,0.12207325515448769,0.09292230525663783,1
0.0719679629164206,0.041322153934855235,0.4105899105135597,0.22325758769830642,0.11864763767936706,0.08503033682077867,0
0.08136317972060209,0.0836226601176892,0.38637471026917697,0.22703729759546706,0.0704342356207002,0.09633842165394525,1
0.06209857440830084,0.02063872245172407,0.4341579231644569,0.22012177976910932,0.1488615026880108,0.09362100321459776,1
0.07224887017770427,0.035809801072955796,0.40037516948848645,0.17821258873671597,0.06591559738781327,0.08623630639779033,1
0.09761041163576362,0.05954169753576183,0.36605790093140445,0.19547234892490906,0.09772937064418681,0.0826438269162485,0
0.07257145059235415,0.02781043784186904,0.389554370056549,0.21420512790675594,0.15640837205557967,0.08883597368485663,1
0.11350561356448835,0.08143431626404767,0.3672280213566406,0.17381616450475196,0.11052835322979712,0.08160656891993211,0
0.06418928348811236,0.06664731636010313,0.39071465338735073,0.2177917547578203,0.10404223825816114,0.08616375419857245,0
0.11035379157161512,0.1803548318868654,0.4090467994351906,0.16866542404423912,0.12259025849904544,0.08473383536786212,1
0.10408261742549746,0.18414011378616538,0.37978642240244675,0.21340619479078426,0.14695469526779364,0.08480325525036764,1
0.09282075789577511,0.1845468886114473,0.42044703507142134,0.14094982978299236,0.1333879761350062,0.09621958827692836,1
0.06910121005702652,0.15995817837549997,0.3794686967862592,0.18797352414923396,0.10215622517697673,0.09222005821967746,0
0.0741899526601585,0.0986162795864129,0.39823526396108555,0.22757122866188106,0.15863723497959875,0.08436579089636274,1
0.10526397001903066,0.09042947854172237,0.42801818489479704,0.1596391564099982,0.09450811451274096,0.09322731656119469,0
0.0911559779507707,0.02596201920848709,0.4155286232899744,0.2242972162462723,0.14203890939124525,0.09901734736396714,1
0.0807320456881997,0.0264666655779534,0.4356213059488039,0.15206928677050233,0.10174948050622168,0.09095766562659097,0
0.06326215583674816,0.16662925387321884,0.41536282382428846,0.14811944505227634,0.12317862697619109,0.09931635359080497,1
0.08295215498036494,0.08380443915536342,0.42891800673188313,0.12964765296604847,0.1387920499588719,0.09470673975258258,1
0.10799393534378826,0.11924146369151421,0.3976027127259251,0.14745980698527483,0.09892585440299748,0.08040028315992612,0
0.07720079497644627,0.1663803087520789,0.4320915640640604,0.19499643575500686,0.06648527427747983,0.08668074112514976,1
0.11525765259162525,0.1784108432581048,0.43672558378012116,0.1595134418105154,0.061107179547515475,0.09643552519536056,1
0.11207551320286022,0.16265946377171717,0.4186057865177591,0.1260410255550241,0.090300914647056,0.08480778163690972,0
0.07963727870102577,0.17344137080344593,0.3760975346123405,0.21379276472034034,0.0923073310964998,0.09365010969037824,0
0.11561851529505923,0.04825019305844036,0.37613453621167176,0.2108110089851038,0.12946013098461312,0.08763651674215109,1
0.100098479811494,0.1102054463014586,0.39253586095549753,0.23084900515634904,0.09562592687550103,0.088045761579118,0
0.10916211589155977,0.10150257680141127,0.37773691062629744,0.20380064598721181,0.14587770999100075,0.08410101666149192,1
0.061307037051134855,0.05354043482271553,0.36881918455215984,0.18410569916250064,0.10875043982692234,0.08902389933740941,0
0.07496771549246198,0.14179012223395598,0.3857230753099147,0.21041910787142792,0.14002091684844475,0.09741958508424625,1
0.10816001046546483,0.0772638234087967,0.38700671042391294,0.20128621631596505,0.06364604444436124,0.08881609699007721,1
0.09527885783174814,0.1743788787015855,0.40921566487344446,0.20653299822619337,0.09609564459199174,0.09485744378227659,0
0.11008803478253212,0.1252715919524774,0.3767442449129873,0.20823341602631523,0.10381962173536598,0.09882398790986627,0
0.08618869501718673,0.14990863823869024,0.3719157957353519,0.22145822851397964,0.14874016816486152,0.08137152535658415,1
0.11610441088917518,0.0776644919229839,0.436731737616026,0.19434754511890923,0.11666633266904719,0.09494969682331943,0
0.09263387404064344,0.1727122257434428,0.4147985450179843,0.15771910868108,0.07896672647913817,0.09547561595374751,1
0.11492181341864312,0.1655446654480282,0.3844981094581839,0.11113358706907935,0.09302439639652488,0.09737847896559021,0
0.11360241568690854,0.15846349346461058,0.40175031326515265,0.24222871398667495,0.09006277108726465,0.09157354093768097,0
0.1071017077958446,0.18548988350856424,0.406350807899376,0.15544765266927763,0.12463003031035928,0.08445470380178693,1
0.06633474216207653,0.11877380215912844,0.4289750474936244,0.12276841879257679,0.15326456944924133,0.08171297583511843,1
0.06833948824204814,0.10828547543336937,0.4323537544792976,0.2392940578682668,0.12247424910582408,0.0991693911318939,1
0.08123827896783262,0.18442520274898505,0.43533052670123074,0.19738330272635798,0.12197245079466112,0.08723125357919236,1
0.11912464517621962,0.01759441697210658,0.4016128167481774,0.23381899010427998,0.10078708882820625,0.09756244267128245,0
0.11175140825740756,0.12423794377831131,0.400385956637118,0.10203083891141773,0.0820286457040249,0.08833552527554003,0
0.074647816073083,0.0845686297555005,0.4145561743025154,0.20733334318859098,0.09003473278622696,0.09329719928502762,0
0.09453086048542911,0.03358476620989122,0.38998447190316854,0.23223058012433978,0.11346815240034919,0.0820137328996662,0
0.0992545802130629,0.090701060538283,0.3785319085684567,0.19771537391381924,0.15209734456359936,0.09617057775708474,1
0.10790456882724278,0.11543344588467093,0.407743156002633,0.18925544500175046,0.11514496304587475,0.09561078209928667,0
0.09514596660173377,0.02157174418835475,0.40889860133519557,0.22915436472580797,0.09789240704600477,0.09808449217659476,0
0.09640423064084636,0.06172818061839985,0.4071028501584482,0.14781827617863985,0.15964761137807565,0.08521129196279867,1
0.09915080073240928,0.04786836892191726,0.3844177794853366,0.10232979341762073,0.11507413942142798,0.0924325527375994,0
0.09275623070654279,0.06946092541285415,0.40910037969855495,0.12744308095870924,0.13148125548727815,0.09388446375940437,1
0.06288793795160431,0.1748406400159151,0.41673344711294336,0.10978899223531256,0.12462262454637868,0.09706008655148693,1
0.07226473573312597,0.19446629242762045,0.43584376372624617,0.16935098797052003,0.142082664516222,0.08887907152816042,1
0.079052190237085,0.1126169624402295,0.40050621182526214,0.17656052731122301,0.07202974255645492,0.08738213758137983,1
0.110387078955862,0.1032504153780043,0.4203128140563091,0.24040919111123008,0.15210604721540233,0.0963526586837321,1
0.10147349323901504,0.0179953363581788,0.43366789893146707,0.19081881345113483,0.07955690368204874,0.09692754482195938,1
0.07355824384479887,0.18780603835235773,0.4291188954773724,0.24786890292842215,0.10357592940269542,0.09291294172292093,0
0.09019825774080566,0.1686983033068832,0.43981793289288024,0.19580200021356184,0.12136540552806324,0.08050850670742186,1
0.10798840923147139,0.06134059311290589,0.42567160573231927,0.10597341513429012,0.11699892401837592,0.08676805093027672,0
0.11083125663789685,0.1894934102754114,0.43061026323582813,0.10322269340706798,0.10838653440598939,0.08672851095871954,0
0.11560585208485627,0.1328824574565445,0.36437005675116246,0.2327646344760915,0.06873634796432701,0.09838832980343357,1
0.06300111573609468,0.11966612715137975,0.41251737549089973,0.24307199050930386,0.14208834669201875,0.09783247214600008,1
0.09010182145485704,0.05190095974012762,0.4080211752368959,0.16236293237268262,0.10186949566402001,0.08761568469758783,0
0.07108563777185567,0.17491399431742435,0.40772847843983606,0.16085052543854853,0.11877146070792856,0.08515315155305798,0
0.11513491639448695,0.17229899611488989,0.3933659876135538,0.2284231101539121,0.11229084227915101,0.08279735426473601,0
0.10934886336368027,0.041105467781465795,0.37517735881206266,0.1680676123309363,0.06245618875596652,0.0883021680929195,1
0.11353574243558742,0.09643787820087851,0.36344222027710554,0.2397599370590661,0.07678185693462569,0.087442249250723,1
0.1181752088868185,0.09633609086114915,0.39769562306885997,0.22771562867139522,0.10736708170673734,0.0902453847992078,0
0.08431739991290119,0.05113367565616733,0.4167830347927868,0.15407594421189394,0.11701115698704478,0.09703803146040069,0
0.10435114422951777,0.19391037144929876,0.41494035975590854,0.18129403504791894,0.1440932625069566,0.0816053474360658,1
0.09301874728701577,0.023561549905431356,0.3896739638072248,0.22922690079027142,0.15734277576006936,0.08684834979828078,1
0.11527295682219364,0.19973911980581,0.418441588744641,0.2488367817878624,0.15530527324719892,0.09442062979309879,1
0.06263170094644854,0.014964922664307663,0.3605533372719125,0.1350119884249758,0.13571554703173852,0.08498395888764795,1
0.09023915917820122,0.13288218839485527,0.3764932569254295,0.11705840741427267,0.1065432904087624,0.0834072245036911,0
0.1113221077577245,0.026344772463842765,0.4390658332768719,0.2424482190246294,0.09191875790105222,0.09963233386037756,0
0.0983693371921338,0.11588569802012529,0.40955554411191053,0.2331676678580547,0.09631761351559195,0.08659429152592979,0
0.09000506396974381,0.09069182154130465,0.3944615464907264,0.22458674650613625,0.06487137363294504,0.08034804948491366,1
0.10090475897109075,0.11676508374745549,0.42651664077253026,0.18571306172964497,0.06766337900093407,0.08289357057451524,1
0.08185425390215242,0.056928448258416475,0.43066009053944065,0.2234823462859849,0.1286571206486822,0.09462950744618183,1
0.060989299334104165,0.013180332509401028,0.3649366862505564,0.10942245073800777,0.15471456065804667,0.08243833502993139,1
0.08594178995124448,0.16432144804019908,0.43953506588341945,0.23535192257911472,0.15420833483752927,0.08101976093677786,1
0.07365278558266856,0.07490225762159057,0.380621000195658,0.20018804068484722,0.08246320373954623,0.09027195404306804,0
0.11236906581377465,0.043071328967206744,0.38733415063202103,0.1528538417594968,0.12795754781411922,0.08923492565169099,1
0.0872130713984201,0.046437158918992236,0.41659967542154047,0.13189276115744555,0.13608166143778744,0.08092140702653892,1
0.0891566060845107,0.06588030101887463,0.4179710214974121,0.13322065981880582,0.0972085716653297,0.09681157236808205,0
0.08871832082070624,0.043661545037092714,0.3815419554409409,0.16791052016935903,0.0917188261213907,0.09945562275072786,0
0.10541212250906708,0.1831876022560659,0.37399131062588215,0.18701668201605748,0.13635437049084248,0.08936483628471104,1
0.0922229121576174,0.04593517059491173,0.360140777254992,0.24738629261624553,0.09600987637946003,0.09234539410730738,0
0.07526357550481945,0.09481811007062986,0.4074105865285437,0.2200768720751438,0.15189583528248776,0.08965776219682027,1
0.10217037197931925,0.12425414736674777,0.38593947648363636,0.13889689250143974,0.07674707495880059,0.09242153670560668,1
0.09952953942207618,0.024798325652840715,0.4399198995049808,0.17527047727318942,0.14845995160432596,0.0828145589460234,1
0.0976672149552922,0.022726127426823506,0.4278404158250112,0.19983785020617756,0.1258203020731541,0.08219237244793352,1
0.09087623016708679,0.0363643957199503,0.43185654987634536,0.16913115783097993,0.1567321524958642,0.08263496948384375,1
0.10333085453899946,0.07561583200748552,0.4073902830220863,0.23149482033571392,0.09182234092663207,0.0963894303571945,0
0.06135783019271588,0.1494971828138516,0.3735442716902979,0.15407442360995027,0.12568523605428,0.09159303867566355,1
0.06413050238687426,0.11387267666480197,0.4108856072041874,0.18030472170746245,0.15180772492708167,0.09461473102695563,1
0.11875991928451878,0.08747417597593769,0.3817116449774521,0.24778127555697577,0.1379639745120933,0.09815636713723291,1
0.09100061086633274,0.0628671843041505,0.43266458362475835,0.19011755311690381,0.07636300792839505,0.08038259512394769,1
0.09215987343390984,0.02086304337558894,0.38419730781289446,0.17650205011968795,0.0724939714330313,0.08164108733638972,1
0.10882746186250497,0.19681975468805488,0.39015550302921964,0.13482499928660838,0.10679697397562193,0.0993235326690754,0
